HOLE:	U1351B
EXPEDITION:	317
TOP:	875.6260
BOTTOM:	1016.4436
DEPTH_WMSF	APLC	STOF	SIGF	AFEC	ANEC
m	%	in	cu	cps	cps
875.6260	33.1430	1.2266	25.8648	541.0000	2612.5715
875.7784	33.7103	1.0629	26.7940	570.0000	2587.5000
875.9308	30.0311	1.0745	25.6695	595.5000	2606.5000
876.0832	30.5566	0.9907	25.4483	560.5714	2619.0000
876.2356	30.3621	0.8705	25.9317	595.5000	2623.4285
876.3880	30.3824	0.7870	25.6077	600.0000	2651.0000
876.5404	33.3545	0.6449	24.8111	580.5000	2601.5000
876.6928	32.8264	0.7345	24.3683	613.7143	2586.0000
876.8452	29.8305	0.8158	23.8526	572.0000	2619.5000
876.9976	27.5903	0.8585	23.6480	596.5000	2649.7144
877.1500	25.1641	0.9513	22.9238	586.0000	2551.0000
877.3024	28.7420	0.8982	23.2608	559.5000	2596.0000
877.4548	28.5484	0.9877	23.6940	602.8571	2507.5000
877.6072	31.5328	0.9383	23.7338	538.0000	2566.0000
877.7596	30.0466	1.1782	23.5877	505.0000	2583.1111
877.9120	40.1485	1.2349	24.0470	523.1111	2504.8000
878.0644	50.1606	1.1118	25.6839	532.8889	2461.6001
878.2168	60.5151	0.9048	27.4590	409.2000	2464.6667
878.3692	64.8705	0.7220	28.6940	451.0323	2432.0000
878.5216	80.1459	-0.3675	30.3029	433.1429	2411.0000
878.6740	90.7853	-0.5462	30.1244	451.5000	2312.5715
878.8264	94.6874	0.0105	30.8704	420.5000	2294.5000
878.9788	95.6657	0.2395	32.6257	398.8571	2338.8572
879.1312	100.8948	2.0000	28.1062	368.6497	2320.0496
879.2836	103.7739	1.9885	27.1290	384.1376	2324.7930
879.4360	98.2011	1.1744	31.7823	393.3387	2302.5474
879.5884	91.2844	-0.4948	34.3096	386.0892	2381.3530
879.7408	86.4834	-0.6683	34.4332	425.7878	2389.8000
879.8932	81.8676	-0.4738	33.2101	453.2869	2382.6138
880.0456	79.1372	-0.2841	33.5870	472.5058	2372.4902
880.1980	82.8053	-0.5313	32.6107	433.2591	2400.9705
880.3504	89.0104	-0.6315	31.1216	405.3514	2429.0066
880.5028	93.0382	-0.2632	30.3721	411.3503	2327.0627
880.6552	89.8213	-0.6209	30.9722	444.5106	2378.0312
880.8076	88.9338	-0.6397	31.0244	431.6921	2298.0486
880.9600	84.6703	-0.6105	31.7269	399.4839	2336.1709
881.1124	76.0965	-0.0692	32.9118	440.5002	2315.3445
881.2648	59.0986	0.9060	30.9647	427.7800	2389.6008
881.4172	48.6497	0.7597	31.1528	473.2119	2489.3633
881.5696	43.3992	1.0594	29.5270	544.3955	2524.9434
881.7220	53.9592	0.4455	29.7480	542.5000	2494.9602
881.8744	51.9613	0.5059	28.3510	542.5875	2518.2874
882.0268	40.0734	0.9238	26.7937	545.8620	2467.4587
882.1792	37.7919	1.1094	25.1992	561.2987	2578.1560
882.3316	48.1684	0.9190	26.0861	502.8931	2458.8179
882.4840	58.4481	0.9757	26.3069	499.1866	2500.0061
882.6364	55.1792	1.0491	26.1732	504.2094	2525.5439
882.7888	52.6481	1.0858	26.5627	502.4350	2477.4629
882.9412	47.7490	1.1463	27.2273	509.1883	2461.8794
883.0936	40.5822	1.2338	27.0810	506.7293	2554.9395
883.2460	41.3135	1.2180	26.6178	493.5767	2550.5178
883.3984	45.8354	1.1649	26.6983	524.4128	2480.3684
883.5508	45.5173	1.1610	25.8784	520.5155	2534.9741
883.7032	44.8043	1.1210	24.9362	538.7539	2535.5383
883.8556	42.5651	1.2062	23.5584	511.0623	2516.2664
884.0080	42.0254	1.1944	24.2264	519.1777	2517.1194
884.1604	39.0787	1.1637	25.0928	509.0456	2509.2505
884.3128	35.2397	1.2755	26.4831	517.9973	2483.0808
884.4652	35.6860	1.1773	28.0708	511.6096	2472.8259
884.6176	37.4591	1.2066	27.8587	514.7680	2482.4141
884.7700	40.8250	1.2231	26.7044	515.8165	2530.1414
884.9224	42.2964	1.2046	25.9149	517.6625	2520.5579
885.0748	41.8597	1.2126	24.8345	525.0674	2478.2000
885.2272	42.0173	1.2158	24.0766	509.2843	2470.1326
885.3796	40.8601	1.2310	24.8514	512.0720	2502.4048
885.5320	39.2022	1.2487	25.7925	502.9285	2500.4541
885.6844	36.8184	1.2849	25.7520	522.6541	2483.6064
885.8368	36.0062	1.2473	25.1848	591.8361	2475.4961
885.9892	38.1082	0.9781	26.5310	591.5065	2498.0195
886.1416	33.6515	0.9113	26.7305	565.9863	2552.2959
886.2940	28.9612	1.0137	25.3788	568.1860	2654.4075
886.4464	30.3588	0.8264	25.6068	577.0900	2676.4666
886.5988	36.3398	0.6048	26.5197	542.4677	2599.3657
886.7512	38.1918	0.5998	26.3227	525.0727	2582.2720
886.9036	40.1583	0.5904	25.9893	553.0502	2615.9216
887.0560	41.3633	0.6435	25.8504	583.9764	2617.0894
887.2084	35.4901	0.9262	24.8610	581.1073	2612.2939
887.3608	30.7950	1.2040	24.0466	583.6841	2631.4468
887.5132	30.9045	1.4760	23.2363	567.0117	2589.4795
887.6656	35.4357	1.3117	24.4237	526.9091	2529.4221
887.8180	37.4469	1.2762	25.2456	510.3823	2554.5454
887.9704	42.1321	1.2210	26.1401	527.4011	2548.4099
888.1228	47.6724	1.1517	26.7708	509.2532	2516.9966
888.2752	56.8137	1.0268	27.4432	515.1807	2503.2354
888.4276	58.0000	0.9987	27.7903	496.6933	2450.7007
888.5800	55.6098	1.0365	28.2939	529.7585	2467.0442
888.7324	49.4715	1.1196	27.9660	537.2636	2483.0295
888.8848	42.7529	1.1133	26.9025	532.1743	2530.2683
889.0372	37.6407	1.0052	26.2495	530.1835	2526.3030
889.1896	31.9236	1.0854	24.4422	565.6126	2526.6394
889.3420	30.3296	1.1459	22.5279	582.7570	2548.5325
889.4944	29.8006	1.2276	22.1198	584.1990	2556.4844
889.6468	29.7840	1.2404	22.2829	558.9391	2574.3723
889.7992	30.9922	1.3102	21.7798	534.7923	2539.2297
889.9516	32.7353	1.3930	22.2024	552.7852	2498.4309
890.1040	33.8636	1.3595	23.4316	548.4495	2490.4058
890.2564	34.6023	1.3390	24.6337	540.8489	2538.8057
890.4088	37.2962	1.2954	25.9718	536.7432	2567.5308
890.5612	41.6060	1.2337	27.3273	518.0015	2554.0835
890.7136	42.4433	1.2166	28.0896	532.6615	2544.9297
890.8660	42.0810	1.2134	28.0356	549.9995	2549.1423
891.0184	40.5696	1.2369	26.6300	538.0068	2519.9395
891.1708	39.1138	1.2621	25.4255	544.4683	2548.2354
891.3232	37.7186	1.2712	24.3299	523.9834	2538.9121
891.4756	36.3403	1.2865	23.3605	502.8469	2557.7170
891.6280	36.4335	1.1902	24.3404	522.7684	2576.1157
891.7804	38.6111	1.0123	25.9601	521.8892	2558.8582
891.9328	41.5007	1.0564	26.8066	532.0222	2518.1641
892.0852	42.8170	1.1813	27.6676	545.9222	2485.8711
892.2376	42.3639	1.2058	28.6526	541.3634	2547.9839
892.3900	42.4535	1.2087	28.5246	510.8574	2563.6033
892.5424	44.8074	1.1820	28.0217	510.8674	2525.3118
892.6948	46.0405	1.1629	26.7245	527.4692	2516.1243
892.8472	42.9746	1.0857	25.3991	574.2408	2507.5513
892.9996	36.3700	0.9676	24.3623	620.3034	2472.1357
893.1520	27.4006	1.0802	22.7342	625.2582	2507.9705
893.3044	22.9335	1.1438	21.9434	577.6119	2574.8586
893.4568	25.2861	0.8462	23.2532	536.9733	2579.8132
893.6092	29.5943	0.5466	24.6048	546.4491	2580.7229
893.7616	28.4829	0.4948	24.8272	554.8134	2640.9062
893.9140	26.0167	0.4818	24.6964	577.3107	2697.0896
894.0664	25.2060	0.4578	24.4016	561.5226	2654.3027
894.2188	26.8595	0.4817	24.3349	528.2211	2646.9172
894.3712	30.3326	0.5064	24.0646	525.1429	2706.0720
894.5236	35.9327	0.5091	23.6885	539.5219	2705.8777
894.6760	38.6027	0.6898	22.5116	561.2778	2605.0276
894.8284	33.9280	0.9824	21.1295	581.8141	2554.5764
894.9808	29.9783	1.1278	20.0478	572.0966	2569.7395
895.1332	29.2306	1.2451	19.2700	578.1569	2559.4075
895.2856	29.3157	1.3859	19.0463	583.3889	2571.6667
895.4380	30.1333	1.1988	20.8599	574.6852	2553.1428
895.5904	29.4447	1.0301	22.2716	559.0153	2517.5833
895.7428	27.4832	1.0925	22.4971	548.6570	2560.1389
895.8952	26.9732	1.1627	22.9726	569.2894	2623.9888
896.0476	32.0343	1.0033	24.1225	563.1302	2604.9734
896.2000	35.7470	1.0753	24.5012	537.4521	2585.3823
896.3524	35.7502	1.2820	24.4998	522.6641	2640.9033
896.5048	37.6599	1.2549	24.6067	553.8405	2657.4431
896.6572	39.2016	1.1579	24.6894	589.4234	2631.3411
896.8096	40.2329	1.0979	24.6182	575.1599	2624.0623
896.9620	45.3560	1.1171	24.7328	579.0266	2578.4033
897.1144	54.2020	0.9639	25.7160	539.2996	2471.9299
897.2668	59.5689	0.7292	27.0784	473.6589	2462.5535
897.4192	61.2194	0.7615	27.1714	485.1483	2481.3406
897.5716	61.3482	0.7460	27.6027	494.6032	2452.9873
897.7240	58.9053	0.4465	29.0035	496.8991	2489.8508
897.8764	48.7343	0.4157	29.2750	507.2286	2558.2634
898.0288	36.5175	0.5754	28.4642	537.8948	2591.7747
898.1812	27.0609	0.7127	27.4713	627.6229	2587.9446
898.3336	22.5057	0.7437	26.3759	656.6013	2597.0662
898.4860	21.9918	0.7447	25.1893	627.5743	2665.2705
898.6384	22.9250	0.7694	24.4115	578.1742	2714.5864
898.7908	27.6337	0.6751	24.2705	567.4299	2729.6709
898.9432	32.8907	0.5607	24.7563	583.4415	2651.0125
899.0956	32.9992	0.6830	25.0550	584.7859	2634.2830
899.2480	29.6111	0.8694	24.9219	563.4318	2669.4263
899.4004	30.0799	0.9161	24.9597	551.6376	2636.5049
899.5528	32.1854	0.9905	24.5923	567.8675	2623.5308
899.7052	33.9021	1.0988	24.0663	550.0195	2608.7512
899.8576	33.8426	1.2318	23.0868	548.6226	2611.9702
900.0100	34.6587	1.2752	22.3638	545.5501	2588.2771
900.1624	37.1919	1.2625	22.5219	523.8868	2529.3367
900.3148	36.3451	1.2574	23.0813	534.3777	2539.6011
900.4672	35.3684	1.2225	22.9441	519.5994	2519.7805
900.6196	34.3514	1.1124	23.5402	523.1670	2498.6433
900.7720	33.4326	0.9541	24.2577	528.5862	2550.1482
900.9244	33.2855	0.8841	24.3230	537.9626	2561.0469
901.0768	34.3030	0.8651	24.8986	544.0328	2565.2590
901.2292	33.8185	1.0372	25.1730	543.8315	2621.9778
901.3816	34.3721	1.1346	25.5114	533.1251	2620.5210
901.5340	33.4380	1.2860	26.0485	547.7769	2588.5581
901.6864	32.9376	1.3735	25.3528	553.9868	2544.4197
901.8388	33.3156	1.3142	25.2043	580.0161	2543.1003
901.9912	40.5127	0.9983	26.6238	544.3861	2556.7314
902.1436	41.8635	1.0456	26.4444	522.4288	2537.4119
902.2960	38.3143	1.2193	25.2598	497.5244	2586.8682
902.4484	37.0094	1.2713	25.7807	516.0109	2568.6306
902.6008	43.9970	1.2049	26.2120	509.9548	2526.0200
902.7532	53.6276	1.0750	26.7727	500.3119	2457.4116
902.9056	54.1937	1.0644	26.7476	484.0509	2426.1282
903.0580	45.2827	1.1794	26.1989	479.2839	2430.4490
903.2104	43.6515	1.2016	27.2369	471.2672	2452.4727
903.3628	51.8954	1.0915	28.2915	467.3831	2419.1008
903.5152	60.2541	0.9101	29.8047	472.1114	2434.6160
903.6676	60.2772	0.9367	31.0730	495.5941	2445.1958
903.8200	58.0423	0.9885	32.3283	486.6593	2449.2356
903.9724	56.9440	1.0210	31.9023	480.8928	2460.1399
904.1248	56.4707	1.0278	31.5833	482.7997	2475.8123
904.2772	57.2247	1.0077	30.4599	493.2895	2447.1562
904.4296	53.9509	1.0592	30.0512	499.9457	2457.2249
904.5820	53.9583	1.0586	29.8540	495.6691	2481.1140
904.7344	51.8100	1.0877	29.6974	487.4417	2420.5254
904.8868	49.3219	1.1262	29.9724	514.8597	2449.4395
905.0392	46.1706	1.1680	30.8052	522.2308	2490.8154
905.1916	47.9101	1.1403	30.3592	520.8928	2496.3750
905.3440	53.4532	1.0647	30.6493	548.1373	2499.2705
905.4964	59.7825	0.9198	30.7589	517.8591	2515.2168
905.6488	72.7248	0.1640	31.6471	481.8946	2383.2280
905.8012	77.2672	-0.1504	31.9481	483.8982	2312.5752
905.9536	73.2972	0.1712	31.7359	445.5408	2379.6777
906.1060	72.3412	0.2465	30.7297	455.9696	2363.0935
906.2584	78.1903	-0.2083	30.7984	469.2119	2353.7610
906.4108	87.4924	-0.5960	31.6125	428.6064	2342.3926
906.5632	93.5562	-0.1230	32.1338	425.5389	2287.8086
906.7156	94.1490	-0.0841	33.4656	425.7946	2334.3599
906.8680	93.3344	-0.2344	34.0878	425.9612	2315.7681
907.0204	86.4743	-0.5984	33.4126	406.3885	2356.2373
907.1728	75.8997	-0.0032	33.4252	408.9200	2389.3340
907.3252	69.6520	0.4413	33.7281	403.8163	2404.6877
907.4776	69.9823	0.4293	33.7590	391.2641	2333.5989
907.6300	74.6413	0.0813	33.8554	400.3670	2375.2346
907.7824	75.5148	0.0084	34.5446	413.9550	2429.1472
907.9348	76.5186	-0.0745	34.9824	414.5956	2370.7839
908.0872	72.3735	0.2692	33.6059	452.4405	2299.9153
908.2396	68.6933	0.5042	32.9616	416.1612	2376.5403
908.3920	70.9972	0.3392	33.2026	447.9885	2353.5796
908.5444	74.9017	0.0413	32.8439	432.5933	2372.8086
908.6968	81.5976	-0.4608	33.1604	421.7814	2405.8989
908.8492	87.2773	-0.6614	32.2385	428.0049	2334.4910
909.0016	87.4647	-0.6761	32.2128	406.7833	2382.2395
909.1540	83.5723	-0.5798	32.5156	385.8457	2346.7566
909.3064	87.8879	-0.6545	34.2892	411.9391	2377.8125
909.4588	88.2178	-0.5855	33.2643	401.3013	2315.7764
909.6112	85.1319	-0.6468	34.1541	411.4159	2341.2803
909.7636	78.0938	-0.2088	33.8731	417.9924	2385.8936
909.9160	80.0630	-0.3597	34.0975	445.3192	2314.0857
910.0684	78.9696	-0.2662	33.5632	417.1292	2368.7734
910.2208	77.9239	-0.1804	33.8789	455.8023	2354.2776
910.3732	74.1046	0.1193	34.7576	413.2534	2307.6025
910.5256	72.3459	0.2546	34.2738	431.5413	2324.0823
910.6780	71.5659	0.3147	33.4027	449.9474	2341.3958
910.8304	75.1177	0.0337	34.5908	405.6196	2351.2957
910.9828	79.4798	-0.3064	34.7343	430.0619	2322.2605
911.1352	83.7669	-0.5752	33.4308	419.4286	2326.8572
911.2876	88.3968	-0.6668	34.0346	406.2857	2334.2856
911.4400	90.3570	-0.5683	34.1313	460.5000	2387.5000
911.5924	89.3290	-0.6292	33.2553	403.3856	2355.1565
911.7448	83.5168	-0.5765	34.0160	408.4191	2388.6511
911.8972	78.1755	-0.2009	34.3504	470.7852	2351.7297
912.0496	68.7149	0.4967	34.0404	478.6932	2334.1277
912.2020	50.2008	1.1051	31.3151	446.6654	2405.8682
912.3544	36.0174	1.2990	28.5600	523.7642	2656.2969
912.5068	34.1476	1.3427	25.0878	502.1232	2573.9473
912.6592	35.5395	1.1962	24.8129	529.0197	2615.6538
912.8116	32.1785	1.0553	24.5026	572.3677	2578.9636
912.9640	31.5104	0.9944	23.7719	588.3611	2539.2708
913.1164	32.6455	0.8565	24.5223	543.9360	2585.5789
913.2688	31.6804	0.8100	25.3970	578.9576	2548.9497
913.4212	30.4206	0.9137	25.4572	546.5408	2609.8782
913.5736	31.1828	1.0586	25.0893	542.4107	2500.9314
913.7260	34.9549	1.0538	25.0903	582.6025	2502.5403
913.8784	33.7324	1.3281	23.1309	604.6121	2563.7212
914.0308	33.5491	1.3553	23.8018	593.2469	2537.0674
914.1832	30.0100	1.2039	23.4605	578.5161	2569.5249
914.3356	29.2292	0.9358	24.6195	602.4199	2554.0562
914.4880	26.4075	0.8282	25.0515	550.2386	2574.8982
914.6404	26.0319	0.8374	24.9959	581.7689	2693.5500
914.7928	26.4378	0.7579	24.5554	568.5247	2653.1306
914.9452	28.0108	0.7149	24.3780	558.5260	2692.2131
915.0976	27.8546	0.7495	23.8478	574.2597	2668.1558
915.2500	28.4089	0.8032	23.7278	590.0507	2645.6533
915.4024	29.0278	0.7310	23.3113	578.5945	2613.5825
915.5548	27.7970	0.7791	22.9869	607.1727	2667.7542
915.7072	28.3948	0.7354	23.6625	551.1403	2605.4653
915.8596	28.5949	0.8081	22.9017	529.9172	2616.1655
916.0120	28.5980	0.8109	22.9414	517.8079	2638.2607
916.1644	30.6300	0.8244	22.7923	535.2965	2659.0476
916.3168	37.0801	0.8743	22.3232	512.5366	2602.3301
916.4692	48.7775	1.0635	22.2072	519.3632	2508.7688
916.6216	58.2422	0.9359	24.3273	517.4467	2442.7705
916.7740	52.8539	1.0637	25.2536	500.0185	2498.0762
916.9264	51.0104	1.1069	27.7464	506.8652	2557.9116
917.0788	55.4747	1.0387	29.6430	509.6088	2540.2766
917.2312	53.6512	1.0591	29.4837	507.3992	2520.3408
917.3836	42.1310	1.2097	28.2975	516.2318	2460.0901
917.5360	32.6369	1.4206	26.6874	520.1578	2554.1001
917.6884	31.2369	1.4511	25.9261	503.2969	2530.1992
917.8408	32.3386	1.4076	26.2339	503.8276	2513.5281
917.9932	34.3937	1.3430	25.1215	526.2433	2490.1240
918.1456	34.3611	1.3427	25.3113	528.8768	2478.5344
918.2980	34.1981	1.3473	25.0389	517.8010	2450.9482
918.4504	33.2338	1.3734	23.8918	555.8422	2493.9988
918.6028	33.6453	1.1424	24.0058	562.7465	2459.2012
918.7552	34.2388	0.9969	24.9303	555.7053	2497.0708
918.9076	30.5550	1.1077	23.6940	544.2739	2510.5264
919.0600	31.5050	0.9941	23.2378	578.9574	2562.0857
919.2124	30.5552	1.2055	21.9067	564.5931	2583.6965
919.3648	30.8633	1.2939	21.5901	552.9036	2585.0369
919.5172	30.1145	1.4552	21.0701	566.7390	2633.9543
919.6696	30.1222	1.4473	20.6018	606.7778	2628.4177
919.8220	30.6380	1.4541	20.0394	655.1936	2568.8755
919.9744	27.7164	1.2278	20.9349	673.9371	2604.0940
920.1268	25.6912	1.1567	20.9917	645.6635	2628.3821
920.2792	25.3081	1.0563	21.0731	641.7569	2689.5757
920.4316	30.6816	0.8204	21.6146	618.0005	2667.9062
920.5840	32.3322	0.7664	22.2421	541.7990	2645.8877
920.7364	30.9432	0.8581	22.1114	563.9853	2627.0745
920.8888	30.3343	0.8592	22.1362	567.0337	2592.1223
921.0412	30.4969	0.8460	22.2246	580.8922	2609.9048
921.1936	30.0098	0.9084	22.6068	586.5135	2652.8579
921.3460	31.0741	0.9232	22.9836	560.1276	2664.0288
921.4984	31.9742	0.9110	23.1106	546.5026	2659.2488
921.6508	30.8521	1.0706	22.3730	536.0892	2615.6050
921.8032	30.9416	1.0642	22.7695	553.4270	2600.5464
921.9556	36.8364	0.9508	23.8488	575.0656	2621.5933
922.1080	42.3375	0.7964	24.9781	551.7687	2570.3606
922.2604	41.0966	0.9036	25.6451	552.8958	2580.9514
922.4128	38.9122	0.9416	27.1596	561.8984	2544.0872
922.5652	41.4347	0.9263	28.6119	509.2122	2583.6062
922.7176	47.8477	0.8775	28.9481	497.9202	2499.4812
922.8700	47.4793	1.0449	28.4685	513.2513	2453.9329
923.0224	47.7186	1.0626	29.7225	483.1245	2493.5759
923.1748	49.2996	1.0738	30.2805	451.3844	2481.0779
923.3272	53.3560	1.0614	29.6945	496.2738	2433.4707
923.4796	49.9047	1.1058	28.9105	513.0475	2456.7141
923.6320	49.0568	1.0804	28.3445	516.8683	2508.2168
923.7844	47.7174	1.1124	26.7257	560.8231	2506.2883
923.9368	41.5325	1.2176	24.9316	572.7714	2498.4556
924.0892	37.5819	1.2685	24.5225	565.3538	2566.6233
924.2416	41.0721	1.2265	25.1589	516.7455	2495.1567
924.3940	49.2402	1.1246	26.4331	490.2520	2442.4451
924.5464	51.8158	1.0964	27.7527	476.2539	2510.3621
924.6988	52.6223	1.0873	29.0564	434.9521	2556.9426
924.8512	57.8839	0.9751	30.5702	419.7102	2509.6667
925.0036	55.2884	1.0185	31.9861	430.4906	2465.9646
925.1560	46.0017	1.1702	31.7045	444.2665	2473.6628
925.3084	36.2750	1.3420	31.1196	468.8240	2472.7502
925.4608	31.7785	1.4295	31.6927	485.3815	2454.6707
925.6132	33.5787	1.3666	31.9449	462.4627	2517.4092
925.7656	36.3065	1.2980	31.1364	467.7907	2521.2483
925.9180	47.1457	1.1496	30.8666	496.5187	2518.5559
926.0704	62.7306	0.7420	31.7145	486.7836	2475.3303
926.2228	75.0169	0.0278	32.1790	467.1736	2431.0657
926.3752	76.1245	-0.0475	32.1656	502.7318	2464.1387
926.5276	68.0857	0.5121	32.3975	517.0563	2457.7490
926.6800	60.4537	0.8778	32.7395	478.3271	2468.8911
926.8324	48.5849	1.1168	32.1745	453.0886	2478.5125
926.9848	35.9812	1.3325	31.4741	466.8893	2499.8979
927.1372	30.6178	1.4710	31.1104	485.3232	2539.6067
927.2896	30.4955	1.4349	31.2391	484.8824	2544.2898
927.4420	31.5901	1.3886	31.7239	484.8891	2516.7581
927.5944	33.2981	1.3334	32.4869	494.7743	2496.8723
927.7468	38.1292	1.1360	33.5196	496.8555	2476.9465
927.8992	43.4293	1.0767	33.5030	486.4638	2435.6816
928.0516	44.8791	1.1173	33.0868	487.9734	2454.8933
928.2040	45.6991	1.1141	32.6994	468.4933	2472.9016
928.3564	51.5567	1.0843	32.9669	454.6467	2456.6536
928.5088	57.2591	1.0044	33.6199	456.8862	2450.9470
928.6612	55.4705	1.0323	33.7663	458.9839	2426.2864
928.8136	49.3251	1.1214	33.4794	461.6235	2433.8784
928.9660	44.9178	1.1759	32.8451	465.1148	2417.6946
929.1184	47.6325	1.1385	32.1257	466.9406	2384.5300
929.2708	51.4418	1.0904	31.5283	488.1440	2438.3384
929.4232	45.6534	1.1629	29.7716	494.7824	2459.8542
929.5756	33.8055	1.3957	25.9588	486.2882	2506.3367
929.7280	27.4788	1.6421	22.8495	554.3691	2612.0159
929.8804	27.9389	1.5233	22.1551	565.8418	2559.0347
930.0328	31.3504	1.2247	22.6978	538.4951	2473.6985
930.1852	30.0884	1.1571	23.2381	560.4358	2487.5857
930.3376	26.5167	0.9486	24.9925	562.3044	2582.6343
930.4900	26.1337	0.7944	26.0802	564.3086	2625.1392
930.6424	26.5585	0.7302	26.4202	596.9752	2601.6606
930.7948	27.9932	0.6344	27.0527	611.1654	2611.3533
930.9472	28.2294	0.6299	26.5543	629.9370	2609.8960
931.0996	28.1722	0.7266	25.5040	638.9012	2591.0034
931.2520	28.5951	0.7440	25.2411	607.9252	2612.1169
931.4044	27.0722	0.8167	25.0071	565.5367	2642.2737
931.5568	25.1499	0.9628	24.5100	573.9052	2645.2424
931.7092	25.0642	0.9752	24.9048	566.6084	2611.7859
931.8616	27.9103	0.8508	25.7091	574.1377	2605.9023
932.0140	30.3965	0.8921	25.8552	569.3093	2609.5664
932.1664	33.1716	0.8985	26.2548	571.4707	2640.9998
932.3188	34.5001	0.8723	26.2800	560.5698	2658.9424
932.4712	34.6851	0.8304	26.5273	571.8108	2581.4814
932.6236	30.6716	0.8203	27.0049	562.3903	2546.1665
932.7760	26.3126	0.8327	26.4457	578.8221	2572.4707
932.9284	24.2558	0.9413	25.6857	553.4066	2662.4617
933.0808	32.8728	0.7367	26.7710	545.8662	2656.5447
933.2332	42.5192	0.5608	27.7671	549.1583	2545.6960
933.3856	44.7764	0.6522	28.2429	514.5814	2581.4321
933.5380	38.8083	0.9410	28.5516	536.6218	2598.8464
933.6904	36.4942	0.8081	29.4051	521.3328	2566.8181
933.8428	31.8229	0.8578	29.2257	525.9135	2562.6260
933.9952	26.8476	1.1057	27.9162	559.7421	2563.0598
934.1476	27.1313	1.1005	27.5462	560.3328	2511.6262
934.3000	27.8602	1.0715	27.0112	561.2453	2538.3457
934.4524	27.2253	1.2759	25.5132	569.8093	2545.1018
934.6048	28.3710	1.3805	23.9754	553.8433	2544.0728
934.7572	34.5748	1.1878	23.9474	547.8453	2548.6870
934.9096	51.7952	0.9786	25.5749	546.0567	2534.3323
935.0620	66.6051	0.6076	27.8861	493.3692	2518.4636
935.2144	71.2071	0.3364	29.9162	439.8507	2540.0352
935.3668	70.7331	0.3746	31.7068	430.5964	2525.3640
935.5192	75.5238	0.0205	34.0379	410.1260	2459.5852
935.6716	74.1186	0.0871	33.0712	424.3316	2394.3547
935.8240	63.2501	0.7943	30.9876	454.8993	2441.9526
935.9764	57.2159	1.0218	30.9268	506.9308	2446.0422
936.1288	57.9754	0.9931	30.3985	511.6272	2397.7744
936.2812	59.3874	0.9423	30.3061	474.7624	2413.5017
936.4336	53.3951	1.0803	30.5108	475.3260	2443.6189
936.5860	53.1647	1.0744	30.9318	447.0508	2445.4990
936.7384	56.4802	0.9813	30.3480	479.4254	2372.8799
936.8908	65.8493	0.5819	30.8008	535.9072	2304.6108
937.0432	64.7441	0.3399	30.5099	589.5995	2352.5972
937.1956	53.1654	0.9968	26.8520	547.4337	2421.6106
937.3480	36.2715	1.2779	24.5753	553.5936	2491.7896
937.5004	32.9571	1.2971	24.5945	550.5759	2487.9746
937.6528	36.0916	1.2951	24.6166	519.9878	2509.6021
937.8052	40.9720	1.2239	23.4139	528.4307	2546.8167
937.9576	44.1734	1.1851	23.7840	561.4553	2554.0186
938.1100	41.0598	1.2294	23.2933	573.6525	2469.3706
938.2624	33.1373	1.3825	22.2854	563.1952	2494.7524
938.4148	31.6747	1.4357	21.8078	595.8395	2542.3789
938.5672	28.2900	1.5863	21.4262	517.0900	2446.6448
938.7196	28.1096	1.5453	21.4779	550.8754	2527.8989
938.8720	26.4312	1.4577	21.9442	568.6026	2499.5405
939.0244	28.8517	1.1367	23.1452	549.1765	2575.2656
939.1768	29.8651	1.2818	21.6019	567.5977	2624.4563
939.3292	30.9253	1.3890	21.4210	567.9570	2621.0835
939.4816	32.0303	1.3999	21.6377	557.5965	2603.4807
939.6340	35.1098	1.3405	23.6975	544.0555	2618.4460
939.7864	46.2530	1.1650	25.4411	525.9482	2454.8870
939.9388	46.0398	1.1606	26.8700	533.8871	2485.4497
940.0912	35.4636	1.3023	27.4826	532.6127	2553.7600
940.2436	29.5194	1.4376	27.9221	565.6313	2506.7798
940.3960	28.7119	1.2370	26.3937	522.6055	2535.3589
940.5484	29.3902	1.2739	24.7144	540.0977	2456.6816
940.7008	31.8998	1.4250	23.6836	575.0594	2572.5618
940.8532	33.5113	1.3662	23.0890	576.5905	2521.9019
941.0056	35.6356	1.3086	22.8641	547.7493	2594.3767
941.1580	36.0094	1.3012	22.7687	561.6316	2582.2856
941.3104	39.6952	1.2432	22.8679	547.0462	2582.1362
941.4628	41.4257	1.2133	22.7444	537.0497	2576.9675
941.6152	41.7878	1.1188	23.5259	565.5842	2532.2463
941.7676	44.1196	0.8090	25.0754	541.9581	2465.9424
941.9200	39.9262	0.9816	24.7971	520.1501	2497.8232
942.0724	42.2854	1.1510	24.7224	499.7141	2513.4722
942.2248	47.2841	1.1440	24.8580	518.3825	2497.6460
942.3772	50.2929	1.1150	25.3536	528.0000	2490.8572
942.5296	48.8071	1.1382	24.2448	536.5714	2507.5000
942.6820	46.9847	1.1601	24.7242	499.4286	2512.0000
942.8344	48.6850	1.1351	24.5678	504.0000	2449.5000
942.9868	47.3450	1.1579	25.4348	491.4286	2476.5715
943.1392	46.8478	1.1650	24.8361	512.0000	2483.5000
943.2916	51.0254	1.1131	25.1667	514.0000	2476.5715
943.4440	59.8147	0.9533	26.5526	493.0000	2469.1428
943.5964	67.4494	0.5990	28.3991	433.7143	2476.5000
943.7488	75.9601	-0.0378	28.9999	408.0000	2387.4285
943.9012	77.4596	-0.1584	29.9306	435.0000	2329.7144
944.0536	79.0408	-0.2703	32.3532	428.0000	2350.2856
944.2060	77.5492	-0.1569	32.6587	417.7143	2384.5000
944.3584	82.1268	-0.4923	33.6047	428.5714	2394.8572
944.5108	80.9747	-0.4113	34.6597	400.5000	2302.0000
944.6632	84.9217	-0.6302	35.1443	410.2857	2360.5715
944.8156	80.9360	-0.4143	34.9723	439.0000	2312.5715
944.9680	77.4046	-0.1448	36.3083	421.7143	2355.5000
945.1204	74.0646	0.1271	34.7454	424.5714	2342.8572
945.2728	73.6115	0.1756	34.8077	433.5000	2386.0000
945.4252	76.3838	-0.0613	34.6643	401.1429	2370.8572
945.5776	76.9383	-0.1033	34.5427	405.7143	2312.0000
945.7300	76.8474	-0.0880	33.3381	390.5000	2395.4285
945.8824	83.3648	-0.5671	34.0717	377.7143	2401.0000
946.0348	82.5690	-0.5243	33.6002	370.8571	2338.2856
946.1872	78.3379	-0.2390	32.8687	433.5000	2448.5715
946.3396	75.0999	0.0246	33.0460	453.7143	2457.0000
946.4920	76.6785	-0.1076	32.7496	448.0000	2426.2856
946.6444	73.2027	0.1932	32.7747	441.0000	2457.1428
946.7968	69.1558	0.4804	33.0272	423.4286	2490.5000
946.9492	70.0563	0.4278	34.0403	433.7143	2364.0000
947.1016	71.3579	0.3345	34.8361	449.0000	2410.2856
947.2540	69.3226	0.4793	34.3631	468.5714	2364.0000
947.4064	68.6056	0.5216	33.8841	434.2857	2404.0000
947.5588	68.6816	0.5058	33.6840	440.5000	2389.1428
947.7112	68.4978	0.5064	32.8576	421.7143	2356.0000
947.8636	75.1175	-0.0472	32.3161	452.5714	2365.5000
948.0160	79.9819	-0.4986	32.8954	467.4286	2344.5715
948.1684	90.8763	-0.3033	33.0484	408.0000	2340.0000
948.3208	93.5711	-0.1644	32.3894	408.0000	2333.7144
948.4732	92.4090	-0.3566	33.7477	428.5714	2250.2856
948.6256	87.3717	-0.6770	33.5075	408.5000	2345.7144
948.7780	80.3357	-0.3682	34.4141	388.0000	2304.5000
948.9304	73.0259	0.2091	35.3089	429.7143	2313.7144
949.0828	63.8796	0.7799	33.8638	439.0000	2416.0000
949.2352	60.8116	0.9115	33.3709	480.5714	2457.7144
949.3876	62.3353	0.8588	33.5739	468.5714	2413.7144
949.5400	66.2410	0.6583	33.1172	450.5000	2411.4285
949.6924	68.3512	0.5248	32.7896	461.1429	2458.0000
949.8448	69.5039	0.4420	33.3461	485.7143	2496.0000
949.9972	65.5594	0.6800	32.5869	480.0000	2421.7144
950.1496	64.3381	0.6725	31.7789	470.5000	2501.5000
950.3020	66.8554	0.6033	30.7028	462.2857	2403.4285
950.4544	72.2197	0.2523	29.1669	480.0000	2453.7144
950.6068	73.6704	0.1411	28.6557	435.0000	2437.1428
950.7592	74.9003	0.0375	29.0000	484.5714	2483.0000
950.9116	65.8550	0.6612	28.3822	449.1429	2461.1428
951.0640	60.8452	0.8887	28.2213	495.5000	2566.0000
951.2164	57.1873	0.4634	29.8760	548.5714	2657.1428
951.3688	60.2338	0.4658	29.3897	485.1429	2710.2856
951.5212	60.8963	0.2793	29.2077	535.5000	2662.2856
951.6736	60.8580	0.2181	28.7442	521.7143	2626.5000
951.8260	56.3158	0.3709	29.0317	513.7143	2666.2856
951.9784	53.8299	0.6629	28.0412	517.0000	2701.1428
952.1308	55.4177	0.5235	27.7256	521.1429	2724.0000
952.2832	58.9685	0.4655	27.3287	522.2857	2670.2856
952.4356	57.1599	0.2998	26.5752	487.0000	2749.0000
952.5880	56.7537	0.3692	26.3316	524.0000	2789.7144
952.7404	57.3481	0.3874	26.5825	528.0000	2724.5715
952.8928	61.5184	0.3778	28.1787	564.0000	2673.5000
953.0452	58.6573	0.6469	27.7700	500.0000	2670.8572
953.1976	59.7249	0.8241	29.2215	486.5000	2766.2856
953.3500	55.5052	0.8015	27.7649	527.4286	2705.5000
953.5024	49.9189	0.9403	26.7475	533.1429	2751.4285
953.6548	46.6867	0.7638	27.3342	504.5000	2798.2856
953.8072	52.7794	0.5956	27.7963	490.8571	2748.5000
953.9596	56.3704	0.5639	28.0193	520.5714	2786.2856
954.1120	53.2598	1.0616	27.8230	495.5000	2760.5715
954.2644	60.1436	0.9110	28.9224	485.1429	2781.7144
954.4168	66.6845	0.6183	30.6656	520.0000	2521.0000
954.5692	74.6722	0.0569	32.3637	464.0000	2506.2856
954.7216	69.0769	0.4748	31.6114	444.0000	2455.4285
954.8740	65.4930	0.6928	30.9362	460.5714	2447.4285
955.0264	63.4932	0.7962	31.9580	484.5714	2479.5000
955.1788	63.9907	0.7733	31.1399	481.7143	2438.8572
955.3312	69.6077	0.4550	31.4711	453.0000	2406.2856
955.4836	72.8086	0.2292	32.6392	446.2857	2402.0000
955.6360	75.2352	0.0379	33.3656	450.2857	2364.0000
955.7884	75.1196	0.0421	34.0604	402.0000	2469.0000
955.9408	80.8762	-0.4097	33.0757	434.8571	2302.2856
956.0932	84.8226	-0.6332	32.6380	416.5000	2287.5000
956.2456	79.9495	-0.3541	33.3173	400.5714	2375.4285
956.3980	79.6322	-0.3389	34.0412	443.0000	2329.7144
956.5504	74.8142	0.0440	34.2538	452.0000	2344.5000
956.7028	71.9828	0.2694	35.1335	450.2857	2416.5715
956.8552	73.5823	0.1719	33.4174	434.0000	2449.0000
957.0076	78.7451	-0.2357	31.5995	417.1429	2379.4285
957.1600	81.2291	-0.4194	32.1197	433.5000	2402.8572
957.3124	81.2263	-0.4213	31.9815	421.7143	2393.5000
957.4648	80.2572	-0.3679	32.1195	444.0000	2361.1428
957.6172	73.0805	0.1958	33.4127	444.5000	2366.5000
957.7696	66.8808	0.6168	32.6139	437.1429	2351.4285
957.9220	65.4102	0.7039	32.6339	486.5000	2394.2856
958.0744	65.7524	0.6810	32.3680	481.7143	2413.5000
958.2268	66.7846	0.6341	32.1485	457.1429	2412.5715
958.3792	66.8539	0.6207	32.4343	442.5000	2414.5000
958.5316	70.1152	0.4199	34.7612	431.4286	2464.5715
958.6840	74.5680	0.0804	33.4955	449.5000	2413.5000
958.8364	75.9379	-0.0215	33.2518	461.7143	2470.2856
958.9888	78.1872	-0.2061	32.9386	460.5000	2400.0000
959.1412	76.4216	-0.0702	33.1390	456.0000	2413.0000
959.2936	72.7677	0.2294	33.0274	464.0000	2492.5715
959.4460	67.7068	0.5820	32.8277	486.0000	2449.1428
959.5984	64.0304	0.7711	32.7633	458.2857	2452.5000
959.7508	61.0415	0.8939	32.5150	502.8571	2437.7144
959.9032	60.5874	0.9128	31.2582	456.0000	2421.0000
960.0556	62.5266	0.8406	30.9100	501.7143	2502.8572
960.2080	62.5150	0.8464	30.3316	479.0000	2418.8572
960.3604	61.2924	0.8896	29.1932	477.7143	2514.0000
960.5128	59.4640	0.9466	27.8119	513.7143	2464.5715
960.6652	58.0498	1.0080	27.1729	500.5000	2493.1428
960.8176	54.4329	1.0458	25.8520	480.5714	2512.0000
960.9700	52.2270	1.0955	25.7462	506.8571	2466.8572
961.1224	48.8736	1.1480	26.0261	477.5000	2520.0000
961.2748	46.5299	1.1608	25.6348	515.4286	2525.0000
961.4272	42.3226	1.2044	25.7039	493.1429	2550.8572
961.5796	39.6731	1.2225	25.8708	529.5000	2586.2856
961.7320	37.3946	1.2235	25.6564	519.4286	2612.5000
961.8844	43.1361	0.9048	26.1270	502.8571	2570.8572
962.0368	41.8382	1.0912	25.9757	530.5000	2541.1428
962.1892	35.4825	1.3024	24.7361	548.0000	2626.0000
962.3416	32.4656	1.3089	24.1165	538.8571	2629.1428
962.4940	29.8646	1.3785	23.4038	604.5000	2552.0000
962.6464	30.5287	1.4752	22.1034	566.8571	2608.0000
962.7988	31.7317	1.2996	22.4510	600.5714	2549.1428
962.9512	36.6240	1.1202	23.9575	566.0000	2556.0000
963.1036	34.5085	1.3320	23.9561	584.0000	2565.0000
963.2560	36.4278	1.2858	23.9069	575.4286	2554.8572
963.4084	32.8971	1.3940	24.0161	559.5000	2537.0000
963.5608	32.8295	1.4046	23.9483	568.0000	2580.0000
963.7132	32.9957	1.3973	23.3816	546.8571	2548.5715
963.8656	34.2107	1.3527	22.4926	531.5000	2541.5000
964.0180	34.6165	1.3324	23.1610	548.0000	2539.4285
964.1704	33.0254	1.3837	22.7357	517.5000	2478.5000
964.3228	34.2780	1.3399	23.6564	524.5714	2560.0000
964.4752	35.0541	1.3176	24.4299	507.5000	2491.4285
964.6276	41.4606	1.2190	25.8390	516.5714	2486.0000
964.7800	59.4096	0.9521	27.4925	466.2857	2508.0000
964.9324	74.7818	0.0464	30.9574	460.5000	2370.2856
965.0848	86.0868	-0.6656	32.3744	405.7143	2388.0000
965.2372	83.4865	-0.5739	33.5770	425.7143	2408.5715
965.3896	84.4480	-0.6166	35.0391	419.0000	2341.0000
965.5420	90.5727	-0.5639	34.7116	411.4286	2328.0000
965.6944	83.6631	-0.5852	34.3171	403.5000	2362.8572
965.8468	81.3803	-0.4371	32.6206	450.2857	2426.5000
965.9992	76.0811	-0.0445	30.6774	531.5000	2329.0000
966.1516	75.9037	-0.0328	29.3618	520.5714	2380.5715
966.3040	60.1034	0.9359	27.7942	522.2857	2306.8572
966.4564	40.2658	1.2483	26.4393	507.0000	2439.0000
966.6088	31.5174	1.4428	24.5067	519.4286	2539.4285
966.7612	32.8493	1.3825	24.3932	560.0000	2576.5715
966.9136	34.0585	1.3456	23.8338	544.0000	2594.0000
967.0660	34.7314	1.2662	23.0251	529.7143	2598.2856
967.2184	35.1517	1.1372	22.5798	501.1429	2605.1428
967.3708	41.3809	0.9252	22.9238	543.0000	2567.4285
967.5232	35.9052	0.7078	24.6815	537.1429	2566.5000
967.6756	32.0984	0.6083	24.1365	512.0000	2586.8572
967.8280	24.4952	0.8406	23.7969	595.5000	2561.1428
967.9804	28.7906	0.7420	24.2504	565.7143	2545.0000
968.1328	31.2212	0.7833	24.1410	550.8571	2619.4285
968.2852	30.7364	1.1260	22.4436	558.5000	2598.2856
968.4376	29.0345	1.5430	20.9620	519.4286	2574.5000
968.5900	27.9834	1.2046	22.9221	585.7143	2595.4285
968.7424	27.3137	1.3021	22.7896	557.5000	2586.2856
968.8948	34.6758	0.9799	24.5936	584.5714	2655.5000
969.0472	45.6817	0.8620	25.4595	543.4286	2535.4285
969.1996	57.5603	0.5568	27.2666	518.0000	2633.5000
969.3520	58.3384	0.2003	28.1879	525.7143	2682.2856
969.5044	44.6564	0.2535	27.6490	517.1429	2581.1428
969.6568	26.4964	0.6684	24.4018	548.5000	2623.0000
969.8092	18.3238	0.8470	21.1449	655.4286	2665.1428
969.9616	16.7161	0.9092	19.2938	637.0000	2644.0000
970.1140	19.8697	0.8823	18.8139	608.5714	2682.5000
970.2664	22.9682	1.1330	18.2118	584.0000	2605.7144
970.4188	37.7439	0.6790	21.2715	570.2857	2584.5715
970.5712	44.3697	0.7142	23.0285	554.5000	2579.0000
970.7236	44.4411	0.7394	24.4883	493.7143	2568.0000
970.8760	40.7369	0.9373	26.1844	527.4286	2512.0000
971.0284	37.5865	0.9408	27.5153	518.5000	2598.5000
971.1808	40.4797	1.2106	26.2289	525.1429	2536.0000
971.3332	45.3446	1.0629	27.4539	544.0000	2488.5715
971.4856	33.6655	1.3555	26.4593	507.4286	2557.0000
971.6380	31.8248	1.4210	25.2290	580.0000	2531.4285
971.7904	34.2019	1.3200	24.7192	509.0000	2589.5000
971.9428	47.8341	0.9845	25.3546	525.1429	2536.0000
972.0952	51.2821	1.0929	25.1720	547.0000	2514.8572
972.2476	43.8114	1.1859	25.5077	560.0000	2441.5000
972.4000	32.8120	1.3896	24.3159	542.8571	2455.4285
972.5524	29.0790	1.5551	22.3572	560.5000	2551.4285
972.7048	33.2559	1.3775	23.7460	534.2857	2573.5000
972.8572	58.3963	0.9878	25.8664	466.2857	2441.1428
973.0096	68.6552	0.5236	27.5085	482.0000	2370.2856
973.1620	69.8226	0.4318	29.2934	513.7143	2409.0000
973.3144	66.6557	0.4500	31.4918	505.1429	2376.0000
973.4668	49.6484	1.0192	31.5917	491.5000	2486.5000
973.6192	34.6123	0.8030	30.6232	542.8571	2504.5715
973.7716	27.1862	0.7929	30.0879	547.4286	2664.5715
973.9240	27.9894	0.7085	28.6649	499.0000	2664.0000
974.0764	25.4454	0.9775	26.7679	443.4286	2672.0000
974.2288	28.8957	0.9644	25.0832	484.0000	2687.4285
974.3812	33.7678	1.2017	24.2989	490.0000	2601.7144
974.5336	51.7795	1.0905	23.6695	510.8571	2555.0000
974.6860	58.1968	0.9879	24.8867	560.5714	2481.1428
974.8384	57.3050	0.8053	26.6365	574.0000	2554.2856
974.9908	36.9594	0.7978	27.3703	584.0000	2483.0000
975.1432	25.2173	0.8975	26.3616	578.2857	2609.7144
975.2956	21.6865	0.8136	26.9094	594.5000	2631.4285
975.4480	27.0296	0.5970	25.8668	626.8571	2649.0000
975.6004	30.1621	0.5879	24.3021	594.8571	2733.1428
975.7528	34.0087	0.5787	24.6062	596.0000	2729.7144
975.9052	37.0251	0.4857	24.9163	616.0000	2712.0000
976.0576	31.9695	0.6531	24.3154	566.8571	2636.0000
976.2100	27.4056	0.7421	24.1106	618.0000	2704.5715
976.3624	22.9494	0.9663	23.7992	582.8571	2737.0000
976.5148	27.2832	0.7813	23.7648	616.5714	2664.0000
976.6672	25.1000	0.8887	23.6952	597.7143	2669.7144
976.8196	27.2475	0.8358	23.2340	578.0000	2607.0000
976.9720	27.6153	0.6769	23.1156	619.4286	2610.2856
977.1244	28.4031	0.4773	23.9326	596.5000	2568.5000
977.2768	24.0737	0.5588	24.7526	561.1429	2671.4285
977.4292	24.0802	0.4860	25.2824	562.2857	2652.0000
977.5816	23.7539	0.5260	26.2875	555.0000	2611.5000
977.7340	27.0799	0.5470	27.5623	567.4286	2618.2856
977.8864	30.5056	0.6225	27.7064	525.7143	2534.8572
978.0388	36.7000	0.6569	27.4316	580.5000	2610.0000
978.1912	31.9375	1.1484	25.6033	552.5714	2557.1428
978.3436	37.0023	1.0848	26.7666	562.2857	2603.4285
978.4960	48.4492	0.8025	29.0630	576.5000	2611.4285
978.6484	44.2110	0.7844	28.9534	602.8571	2601.5000
978.8008	38.7087	0.7752	28.4102	626.2857	2597.1428
978.9532	28.3096	1.0145	26.8618	543.5000	2621.5000
979.1056	29.9157	0.8941	27.3868	488.0000	2628.5715
979.2580	31.4787	0.8503	26.5338	483.5000	2576.5715
979.4104	31.4405	0.9312	26.4727	529.7143	2526.0000
979.5628	30.1656	1.0077	24.9874	483.4286	2472.0000
979.7152	27.8991	1.1255	24.9301	577.5000	2649.0000
979.8676	32.8684	1.3830	24.1232	516.5714	2620.5715
980.0200	50.2005	1.1130	25.3733	524.5714	2532.5715
980.1724	58.9236	0.9574	25.7449	522.0000	2589.0000
980.3248	54.0785	1.0543	28.0203	494.2857	2488.0000
980.4772	47.0397	0.6141	28.8434	525.1429	2509.7144
980.6296	34.2168	0.4405	27.7531	583.5000	2522.0000
980.7820	24.4735	0.5582	24.7830	582.2857	2694.2856
980.9344	20.2504	0.6060	23.1305	718.0000	2724.0000
981.0868	20.7031	0.5193	21.2979	641.1429	2635.0000
981.2392	17.5310	0.7132	20.2476	662.8571	2682.2856
981.3916	22.7958	0.6062	20.6122	629.7143	2681.7144
981.5440	30.0388	0.5021	22.0790	607.0000	2475.5000
981.6964	41.9507	0.5494	23.8459	546.8571	2341.7144
981.8488	27.9867	1.6098	21.3380	544.5000	2452.5715
982.0012	29.7154	1.2222	25.0038	553.7143	2507.0000
982.1536	28.8510	1.1393	25.2843	540.0000	2547.4285
982.3060	26.6940	1.0515	24.0846	573.7143	2610.2856
982.4584	23.6119	1.0147	23.3493	604.5000	2601.0000
982.6108	29.0211	0.6348	24.8626	548.0000	2630.8572
982.7632	30.5306	0.5518	24.7229	523.0000	2612.5000
982.9156	29.6241	0.4770	24.5846	545.7143	2535.4285
983.0680	24.1809	0.5861	25.1692	628.0000	2587.4285
983.2204	22.7250	0.6072	24.1178	605.0000	2636.5000
983.3728	26.8590	0.4901	24.1597	616.5714	2644.5715
983.5252	29.3327	0.5114	23.5459	596.0000	2705.1428
983.6776	28.9217	0.7624	23.2945	584.5714	2666.5000
983.8300	27.5814	1.0264	22.3748	587.4286	2775.4285
983.9824	28.9876	1.1210	22.3120	521.5000	2753.1428
984.1348	30.1595	1.3239	20.6108	522.2857	2753.5000
984.2872	25.7120	1.4481	21.0073	508.0000	2688.5715
984.4396	30.4037	0.7936	24.4194	517.1429	2652.0000
984.5920	29.0568	0.6239	24.8277	548.0000	2534.8572
984.7444	31.4466	0.4843	24.7610	502.8571	2617.0000
984.8968	22.9269	0.7227	24.0148	620.5714	2698.2856
985.0492	27.6604	0.5487	23.1585	544.0000	2704.5000
985.2016	28.2422	0.5509	22.5409	554.2857	2652.0000
985.3540	31.6245	0.4356	22.1875	574.2857	2667.4285
985.5064	27.4703	0.5850	21.9179	546.0000	2658.5000
985.6588	26.1800	0.5777	22.2170	586.8571	2655.4285
985.8112	24.5402	0.6085	22.4055	637.5000	2658.2856
985.9636	24.4473	0.6134	22.2522	606.2857	2685.0000
986.1160	22.7377	0.7979	22.1940	664.5714	2697.1428
986.2684	24.7583	0.7192	21.8961	607.4286	2722.8572
986.4208	27.9662	0.7357	21.1859	636.5000	2642.5000
986.5732	31.9306	0.8205	20.8810	674.2857	2608.0000
986.7256	36.2040	0.7630	20.8746	689.0000	2597.1428
986.8780	38.1703	0.7847	20.1672	626.2857	2674.2856
987.0304	32.1464	0.8276	20.7754	654.2857	2657.5000
987.1828	26.0979	0.9646	20.9863	637.7143	2745.7144
987.3352	24.4791	0.9508	21.9971	610.0000	2651.0000
987.4876	24.1194	0.9718	21.5869	613.1429	2698.8572
987.6400	24.3557	0.9543	22.6167	655.4286	2700.0000
987.7924	23.7677	1.0536	22.4094	596.0000	2596.5000
987.9448	24.0049	0.9363	23.4952	569.7143	2662.2856
988.0972	25.1866	0.8513	22.8339	590.0000	2681.7144
988.2496	27.9383	0.8186	24.3646	598.8571	2698.0000
988.4020	30.6392	0.6630	24.7077	570.8571	2633.1428
988.5544	32.9389	0.6018	25.4284	577.5000	2681.1428
988.7068	30.1888	0.8159	23.8929	589.1429	2693.0000
988.8592	31.0442	0.9322	24.2509	585.1429	2744.5715
989.0116	40.6480	0.8635	24.0530	592.5000	2706.5000
989.1640	49.5058	0.6627	25.2496	542.8571	2528.5715
989.3164	48.5023	1.0745	23.6757	525.1429	2529.7144
989.4688	41.6737	1.2154	24.7853	532.0000	2455.0000
989.6212	42.7235	1.2002	25.6336	521.1429	2498.8572
989.7736	39.2710	1.2467	25.5555	518.5000	2572.0000
989.9260	34.7410	1.3432	23.6548	543.4286	2544.0000
990.0784	34.6452	1.3335	25.4623	556.0000	2682.2856
990.2308	45.1157	0.9292	27.4858	509.5000	2557.7144
990.3832	40.5544	0.9424	26.8171	557.1429	2494.5000
990.5356	30.3551	0.9273	26.4600	570.2857	2612.5715
990.6880	28.9907	0.7854	26.7916	680.0000	2566.5000
990.8404	31.5766	0.5241	25.7143	652.5714	2560.0000
990.9928	25.9635	0.6719	23.4361	627.5000	2733.1428
991.1452	22.2723	0.7139	23.0119	637.7143	2737.5000
991.2976	24.1054	0.6266	23.1820	578.8571	2739.4285
991.4500	25.7799	0.5832	23.5038	592.0000	2722.8572
991.6024	27.4348	0.6390	23.8914	613.7143	2815.0000
991.7548	25.2440	0.7308	24.3424	596.5714	2780.0000
991.9072	26.8655	0.7139	23.6241	569.5000	2793.1428
992.0596	28.7360	0.6832	24.2411	593.7143	2752.0000
992.2120	32.3440	0.6687	24.5697	539.4286	2651.4285
992.3644	31.1213	0.6982	23.1433	586.0000	2691.0000
992.5168	29.4777	0.6421	22.4933	615.4286	2701.7144
992.6692	26.9923	0.7707	22.8224	587.0000	2728.5715
992.8216	25.4035	0.8760	21.5892	594.8571	2687.0000
992.9740	27.7503	0.7269	21.6033	600.5714	2719.4285
993.1264	29.1639	0.6432	23.1323	577.0000	2696.0000
993.2788	32.6696	0.5711	24.4499	591.4286	2734.2856
993.4312	32.8867	0.5150	24.7560	598.5000	2676.5715
993.5836	34.6511	0.4234	24.7231	627.4286	2688.0000
993.7360	32.4347	0.5014	24.7935	660.5714	2662.8572
993.8884	30.5448	0.6012	22.6327	641.0000	2679.4285
994.0408	29.5058	0.7891	20.8818	655.4286	2696.0000
994.1932	35.0546	0.8123	21.6517	693.1429	2657.1428
994.3456	45.4234	0.8373	23.1940	555.0000	2565.5000
994.4980	48.7717	1.1264	23.0559	552.5714	2569.1428
994.6504	47.8662	1.1351	25.5924	560.5714	2595.4285
994.8028	47.4174	0.6645	30.3022	547.0000	2536.5000
994.9552	35.8881	0.7437	28.8074	577.1429	2592.0000
995.1076	25.5273	0.9383	26.1326	587.4286	2759.4285
995.2600	24.8560	0.8717	26.0301	612.5000	2802.5000
995.4124	26.9171	0.9087	24.3771	574.8571	2761.1428
995.5648	29.7336	0.8646	23.7247	565.0000	2658.2856
995.7172	29.5335	0.9135	22.6448	600.0000	2707.0000
995.8696	32.1192	0.9785	23.1334	547.4286	2672.0000
996.0220	44.6313	0.8790	23.6241	562.8571	2562.8572
996.1744	56.7916	0.6961	24.5773	553.5000	2534.0000
996.3268	64.5866	0.7134	25.2608	526.2857	2535.4285
996.4792	59.4192	0.8707	25.1271	574.0000	2552.0000
996.6316	51.0405	0.8482	25.7740	536.0000	2522.5000
996.7840	32.4300	1.3991	24.2389	543.4286	2526.8572
996.9364	31.0667	1.2001	26.8205	474.5000	2499.0000
997.0888	32.9359	1.3804	26.6328	419.4286	2502.2856
997.2412	49.6730	1.1112	29.8333	446.2857	2612.0000
997.3936	51.8160	0.6652	31.3086	467.0000	2531.0000
997.5460	42.3964	0.4736	29.4467	517.7143	2628.5715
997.6984	24.8229	0.8763	25.8139	583.0000	2612.5000
997.8508	23.9990	0.7944	24.3281	596.0000	2580.0000
998.0032	25.0073	0.6857	22.9185	597.5000	2549.1428
998.1556	26.4169	0.6982	21.6278	650.2857	2636.5000
998.3080	23.8503	0.8492	20.7188	620.5714	2661.7144
998.4604	25.7261	0.8044	20.2478	600.0000	2788.0000
998.6128	26.9924	0.8781	20.1951	634.8571	2761.7144
998.7652	29.9938	0.8811	20.6009	585.0000	2658.2856
998.9176	29.6132	0.9357	21.2453	600.5714	2744.0000
999.0700	28.3237	0.9620	21.8332	576.5714	2678.8572
999.2224	32.3530	0.8130	23.2589	606.5000	2733.7144
999.3748	29.6472	0.7137	23.9039	587.4286	2633.5000
999.5272	26.4494	0.7334	24.0482	590.8571	2738.2856
999.6796	23.6908	0.7987	23.7057	652.0000	2699.0000
999.8320	25.2774	0.7543	23.0341	618.8571	2702.8572
999.9844	27.3684	0.7295	22.5473	634.5000	2699.4285
1000.1368	28.4356	0.7631	22.5634	640.5714	2726.0000
1000.2892	30.6445	0.7408	22.7296	581.1429	2726.2856
1000.4416	31.7844	0.6730	23.4491	570.5000	2716.5000
1000.5940	33.0615	0.6117	24.4930	569.7143	2706.2856
1000.7464	31.7608	0.6359	25.6433	558.2857	2680.5715
1000.8988	31.2763	0.5822	25.0083	562.0000	2684.0000
1001.0512	29.2479	0.6427	24.4298	608.5714	2766.2856
1001.2036	30.7236	0.6041	23.3750	609.5000	2789.1428
1001.3560	31.3895	0.6629	22.6251	629.1429	2729.5000
1001.5084	30.2327	0.7600	21.8404	593.1429	2779.4285
1001.6608	30.5268	0.7914	21.6117	604.0000	2688.0000
1001.8132	33.0833	0.6717	21.9415	592.5000	2729.5000
1001.9656	31.9727	0.7170	21.8739	598.2857	2745.7144
1002.1180	33.3497	0.6193	23.4075	644.5000	2700.0000
1002.2704	33.5210	0.5527	24.1806	590.2857	2743.4285
1002.4228	32.3827	0.5932	24.0961	609.5000	2672.0000
1002.5752	32.5922	0.5729	24.0068	550.2857	2705.5000
1002.7276	32.4229	0.4522	25.2063	604.0000	2694.2856
1002.8800	29.0067	0.5085	22.9759	613.0000	2709.1428
1003.0324	26.3850	0.5480	23.1622	613.1429	2732.0000
1003.1848	25.2112	0.4830	23.0174	584.0000	2748.0000
1003.3372	25.3232	0.4897	22.7874	619.5000	2731.4285
1003.4896	23.2314	0.6067	21.3165	601.1429	2697.0000
1003.6420	24.1295	0.6197	22.0078	604.0000	2701.7144
1003.7944	28.6170	0.5388	21.6337	595.5000	2742.8572
1003.9468	29.8089	0.6996	21.6207	629.1429	2677.0000
1004.0992	27.6698	0.9332	21.8084	568.5714	2754.2856
1004.2516	27.6460	1.1552	22.3677	559.5000	2711.5000
1004.4040	30.7751	1.0689	22.8454	569.1429	2725.7144
1004.5564	31.3537	1.2226	21.8980	649.1429	2690.2856
1004.7088	35.4458	0.9206	23.8900	654.5000	2780.0000
1004.8612	34.7757	0.8176	23.9713	686.8571	2726.8572
1005.0136	33.4934	0.6871	23.8376	651.5000	2660.0000
1005.1660	28.7834	0.8067	23.0009	628.0000	2758.0000
1005.3184	32.2327	0.6308	23.7012	568.5714	2630.2856
1005.4708	31.0988	0.8027	22.4856	608.0000	2617.0000
1005.6232	28.3010	0.7994	22.3978	585.7143	2612.5715
1005.7756	26.9515	0.8691	22.2418	616.0000	2558.8572
1005.9280	27.1552	0.8643	23.9302	622.8571	2603.5000
1006.0804	29.8930	0.8856	23.5563	600.5714	2696.0000
1006.2328	38.8437	0.7882	24.6869	616.0000	2687.4285
1006.3852	49.6345	0.6710	24.7382	537.7143	2714.0000
1006.5376	53.9263	0.5058	25.3268	617.7143	2588.0000
1006.6900	42.4159	0.7064	24.3733	606.0000	2592.0000
1006.8424	29.7582	1.1250	23.6737	604.5714	2726.2856
1006.9948	32.6572	0.8840	24.6242	559.5000	2741.1428
1007.1472	40.3134	0.7887	25.2612	519.4286	2518.5000
1007.2996	39.6517	0.9677	25.4497	532.0000	2616.5715
1007.4520	33.7510	1.3524	25.6308	509.0000	2577.7144
1007.6044	49.7170	0.6293	29.2339	533.1429	2622.5000
1007.7568	48.9262	0.3621	30.3047	546.8571	2585.1428
1007.9092	38.8411	0.7174	28.7246	555.0000	2556.0000
1008.0616	35.4450	0.8166	26.7455	602.8571	2594.2856
1008.2140	43.7048	0.6214	25.9354	532.0000	2696.5000
1008.3664	59.2410	0.4214	25.4813	571.4286	2666.2856
1008.5188	60.3759	0.9079	23.1051	580.0000	2612.0000
1008.6712	58.4552	0.9695	22.5442	548.0000	2659.4285
1008.8236	54.3099	0.6761	24.8216	573.1429	2667.5000
1008.9760	47.3951	0.5699	25.9477	525.1429	2572.5715
1009.1284	38.3537	0.6714	26.7011	554.0000	2677.1428
1009.2808	36.0423	0.6808	27.8221	596.0000	2653.5000
1009.4332	41.1168	0.4636	30.3059	533.7143	2621.7144
1009.5856	41.3186	0.5599	29.1294	544.0000	2641.7144
1009.7380	45.8125	0.7454	27.8848	590.2857	2711.5000
1009.8904	50.9796	0.9710	26.1688	561.1429	2642.8572
1010.0428	51.6283	0.8197	26.2523	581.5000	2677.0000
1010.1952	42.8044	0.9614	25.2754	582.8571	2653.7144
1010.3476	32.5990	1.0261	23.4275	624.5000	2632.0000
1010.5000	33.0043	0.8630	23.1251	657.1429	2669.7144
1010.6524	29.0239	0.8960	22.7923	625.7143	2656.5715
1010.8048	27.2092	1.0410	21.5625	615.0000	2713.0000
1010.9572	26.5280	1.0728	21.1400	578.8571	2652.5715
1011.1096	27.1225	1.0559	21.3529	575.0000	2705.7144
1011.2620	26.2703	1.1027	21.6156	622.2857	2736.5000
1011.4144	28.2780	0.7833	22.7629	585.7143	2721.7144
1011.5668	27.3155	0.8188	22.6423	552.5000	2722.5000
1011.7192	24.2992	0.9727	21.5259	580.0000	2693.7144
1011.8716	28.2741	0.8857	23.1189	563.0000	2681.1428
1012.0240	26.0828	0.9471	23.7086	557.7143	2634.0000
1012.1764	26.1524	1.1596	22.9182	580.5714	2637.7144
1012.3288	23.1275	1.2310	23.2023	531.5000	2683.0000
1012.4812	25.5589	1.1374	23.5180	506.8571	2649.1428
1012.6336	38.4446	0.8186	23.9767	535.0000	2591.4285
1012.7860	58.0071	0.6288	24.3094	574.8571	2529.1428
1012.9384	72.7308	0.0007	25.5512	521.7143	2487.5000
1013.0908	72.3080	0.2393	26.3366	485.5000	2480.0000
1013.2432	68.5491	0.5074	27.8273	498.0000	2469.7144
1013.3956	67.6333	0.5712	30.7310	516.5714	2511.0000
1013.5480	70.5761	0.3770	29.8743	504.0000	2469.3333
1013.7004	70.7151	0.3613	31.2124	529.7778	2461.3333
1013.8528	67.5451	0.5704	30.9198	524.4445	2557.0000
1014.0052	67.4779	0.5802	31.4265	506.2222	2556.0000
1014.1576	69.9017	0.4166	32.3282	543.0000	2471.5000
1014.3100	70.8913	0.3563	34.4116	512.0000	2488.0000
1014.4624	68.8549	0.5088	33.5327	510.2222	2505.5000
1014.6148	68.4408	0.5419	33.6791	541.0000	2495.5000
1014.7672	66.2569	0.6544	32.6185	489.7778	2489.0000
1014.9196	70.0605	0.4328	32.3349	494.0000	2471.5000
1015.0720	70.7893	0.3733	32.1057	526.0000	2477.3333
1015.2244	71.2297	0.3352	32.6719	510.5000	2484.8889
1015.3768	68.2134	0.5379	32.0893	510.5000	2508.3999
1015.5292	70.7754	0.3700	32.8774	511.2727	2505.8181
1015.6816	70.3343	0.3939	32.6355	522.4000	2511.6001
1015.8340	70.9836	0.3543	33.4355	523.6364	2530.9092
1015.9864	68.0799	0.5495	32.8650	507.6000	2482.1819
1016.1388	64.0671	0.7703	30.7392	484.7273	2504.1392
1016.2912	58.8747	0.9754	30.0516	499.7500	2432.0000
1016.4436	54.3489	1.0645	29.6787	516.6602	2432.0000
