HOLE:	U1352B
EXPEDITION:	317
TOP:	398.5752
BOTTOM:	470.9652
DEPTH_WMSF	APLC	STOF	SIGF	AFEC	ANEC
m	%	in	cu	cps	cps
398.5752	62.0563	0.9057	30.5205	481.0000	2294.5000
398.7276	58.6915	0.4808	30.7276	496.0000	2402.5000
398.8800	55.3128	0.7047	31.9781	474.0000	2434.5000
399.0324	58.5374	0.4178	35.3435	459.5000	2374.5000
399.1848	57.6938	0.5276	33.9556	487.0000	2417.5000
399.3372	55.4973	0.4704	34.4651	465.5000	2412.5000
399.4896	60.3819	0.3290	34.6817	452.0000	2382.5000
399.6420	63.3983	0.1113	34.3893	451.5000	2365.0000
399.7944	62.3694	0.1225	34.6285	471.5000	2433.5000
399.9468	55.3462	0.2620	33.8526	476.0000	2438.5000
400.0992	51.1565	0.3754	33.7629	487.0000	2443.1111
400.2516	52.2888	0.3597	34.1603	504.0000	2354.8572
400.4040	55.2587	0.3466	33.6598	500.0000	2331.5000
400.5564	56.6556	0.5006	32.1909	476.5714	2449.0000
400.7088	67.6336	0.7846	32.4830	454.0000	2448.5000
400.8612	83.6856	0.0169	33.9896	458.5000	2438.5000
401.0136	94.1044	-0.4416	34.0391	404.0000	2436.0000
401.1660	95.1471	-0.4253	34.7291	390.2857	2412.5000
401.3184	95.3386	-0.4196	35.1295	420.5000	2277.0000
401.4708	96.6083	-0.3543	34.4123	378.5000	2316.0000
401.6232	90.7602	-0.3886	36.7951	388.4445	2271.5557
401.7756	87.4154	-0.2189	38.0345	394.5000	2297.5000
401.9280	86.3051	-0.1531	37.5364	426.5000	2235.0000
402.0804	89.4749	-0.3346	38.6253	393.0000	2243.5000
402.2328	91.9486	-0.4216	39.7398	416.5000	2263.0000
402.3852	96.0785	-0.3917	39.2649	435.5555	2284.5000
402.5376	88.9677	-0.3001	39.2341	412.0000	2256.5000
402.6900	77.2185	0.4049	38.5306	450.0000	2309.7778
402.8424	55.5878	0.4623	36.6366	487.0000	2321.0000
402.9948	43.4060	0.4319	34.7264	493.5000	2576.5000
403.1472	42.1749	0.3190	32.7516	542.5000	2552.5000
403.2996	46.0451	0.1443	30.5137	532.5000	2574.5000
403.4520	49.4802	0.1377	30.4009	502.5000	2542.0000
403.6044	45.7339	0.2343	30.2128	555.0000	2564.5000
403.7568	44.7603	0.2307	30.2829	558.5000	2826.0000
403.9092	43.0547	0.2363	30.2535	537.0000	2812.0000
404.0616	45.7132	0.2733	31.6255	502.0000	2851.0000
404.2140	41.0537	0.3388	32.0090	530.0000	2798.0000
404.3664	41.8676	0.4025	32.8453	514.2222	2815.0000
404.5188	46.2127	0.3675	32.4402	514.8571	2662.5000
404.6712	54.3089	0.3203	33.2625	500.4445	2527.5000
404.8236	52.9294	0.4291	31.3414	471.5000	2497.0000
404.9760	51.9535	0.3584	31.2121	483.0000	2478.0000
405.1284	50.5199	0.3374	30.7278	489.7143	2508.0000
405.2808	52.7937	0.5949	31.2833	486.5000	2481.5000
405.4332	50.4848	0.4344	30.5099	501.0000	2502.0000
405.5856	51.1129	0.2890	32.2539	494.0000	2610.0000
405.7380	46.7123	0.3558	33.4897	484.5000	2540.5715
405.8904	45.8712	0.3291	32.2902	519.0000	2576.5000
406.0428	45.7048	0.2713	32.9121	489.5000	2556.5000
406.1952	47.9364	0.4188	33.8634	525.7143	2513.0000
406.3476	39.8546	1.0389	30.5028	473.7778	2520.5000
406.5000	36.9003	1.2213	29.2713	441.7143	2507.5000
406.6524	37.0642	1.2127	30.1280	454.5000	2475.0000
406.8048	36.7759	1.1313	30.3081	484.5000	2483.0000
406.9572	60.0212	0.7399	30.8560	457.5000	2503.0000
407.1096	78.2302	-0.0376	32.7683	423.0000	2309.5000
407.2620	100.1062	0.0413	32.2223	370.5000	2250.8572
407.4144	99.0620	-0.1336	33.6678	402.0000	2330.5000
407.5668	100.4858	0.0692	33.3966	401.5000	2277.5000
407.7192	103.9572	0.9253	33.0641	390.8571	2328.5000
407.8716	99.4452	-0.0842	35.3526	399.0000	2313.0000
408.0240	96.0563	-0.3877	35.0855	401.0000	2300.0000
408.1764	93.3672	-0.4421	35.0322	388.5000	2277.0000
408.3288	90.6787	-0.3785	35.1536	366.0000	2267.0000
408.4812	89.6597	-0.3361	35.2815	404.0000	2246.0000
408.6336	77.5577	0.3866	34.9858	400.5347	2296.9895
408.7860	72.7161	0.6247	33.8515	421.5696	2422.9375
408.9384	75.5130	0.5125	34.6271	409.8766	2375.0667
409.0908	87.2175	-0.2079	35.6481	410.9396	2415.2498
409.2432	96.2834	-0.3438	34.7368	402.4531	2287.3723
409.3956	99.1749	-0.1167	33.9748	447.5679	2346.0667
409.5480	92.9226	-0.4095	33.3319	428.6539	2405.7974
409.7004	76.1336	0.4620	33.5981	418.9887	2358.5178
409.8528	59.9023	0.8559	30.9299	415.2983	2444.9216
410.0052	47.3567	0.8861	32.2246	466.6987	2416.2375
410.1576	56.5930	0.7330	32.6992	454.7200	2333.3235
410.3100	59.1336	0.4426	33.4061	468.7595	2357.5884
410.4624	57.6988	0.3479	32.1652	444.9322	2400.2703
410.6148	57.2522	0.5149	33.1077	472.7782	2454.9556
410.7672	58.9518	0.7439	31.6611	506.4335	2373.0312
410.9196	58.8349	0.4871	30.6875	500.4178	2424.9309
411.0720	58.1853	0.2655	31.7348	474.4355	2416.8721
411.2244	53.6669	0.1258	32.2899	471.9553	2420.6843
411.3768	48.5348	0.0666	32.9554	493.5206	2592.8015
411.5292	46.2316	-0.0001	33.3648	487.3222	2622.2502
411.6816	49.3884	-0.1635	34.3374	497.8978	2560.3921
411.8340	51.6202	-0.3213	32.6671	489.8300	2623.8557
411.9864	47.2606	-0.1295	32.6123	493.7950	2618.8560
412.1388	40.6783	0.0972	29.9275	502.8200	2665.0601
412.2912	36.7565	0.2235	27.9806	561.4492	2679.1355
412.4436	41.1379	0.1290	27.7350	582.7125	2647.4460
412.5960	43.4090	0.1635	27.9995	595.5030	2614.3323
412.7484	41.2038	0.2457	26.4444	550.8619	2684.5491
412.9008	39.2662	0.2400	25.8093	559.3347	2695.6975
413.0532	38.1785	0.2206	25.0115	555.6199	2696.2141
413.2056	36.1780	0.3065	23.7399	528.3895	2707.5571
413.3580	35.9769	0.3419	22.2593	548.1128	2724.0571
413.5104	41.3553	0.3046	22.3882	560.6660	2662.7285
413.6628	43.1958	0.4018	23.4872	521.9120	2643.1189
413.8152	41.7653	0.8596	23.9187	426.9966	2627.5464
413.9676	58.0423	0.8951	25.2941	383.4541	2536.7139
414.1200	84.7418	0.0251	29.0941	400.0786	2390.8223
414.2724	101.7944	0.9405	28.6625	396.4586	2319.7122
414.4248	102.9530	0.8025	30.1493	383.2561	2279.9585
414.5772	97.4503	-0.1919	32.6099	384.0774	2271.6172
414.7296	96.0422	-0.3886	34.2154	385.3278	2299.6328
414.8820	96.6408	-0.3617	34.7089	377.0118	2304.9963
415.0344	96.2619	-0.3753	34.8723	391.0238	2302.6785
415.1868	95.0765	-0.4156	35.5027	386.5471	2271.8743
415.3392	89.5328	-0.2600	35.9605	379.1870	2253.1870
415.4916	86.1352	-0.2000	36.1072	387.3777	2280.8953
415.6440	86.7264	-0.3315	36.5098	406.6626	2253.2839
415.7964	91.7600	-0.2213	36.9247	398.0049	2277.7087
415.9488	95.8737	0.1383	36.8513	393.4470	2300.0903
416.1012	90.2055	-0.0340	37.1871	410.2670	2273.8787
416.2536	75.5378	-0.0249	36.6350	394.6738	2322.1572
416.4060	62.3509	0.4023	34.7929	435.8038	2342.9026
416.5584	57.2371	0.4211	33.4909	503.7750	2365.6011
416.7108	53.6384	0.6676	32.1332	517.1133	2555.0908
416.8632	52.9797	0.9379	30.9846	500.9054	2724.7161
417.0156	56.6974	0.8206	31.9574	464.7654	2726.7656
417.1680	59.1996	0.6762	33.2962	474.2484	2723.4700
417.3204	62.9872	0.5891	33.4509	489.6770	2627.1570
417.4728	72.8529	0.3994	34.2996	472.3698	2450.8374
417.6252	76.6409	0.4183	34.5376	464.7939	2401.5837
417.7776	70.3634	0.7030	33.5552	448.4860	2489.4973
417.9300	67.7606	0.7935	33.4861	436.6564	2485.2876
418.0824	69.8255	0.7341	34.5815	456.2936	2378.0269
418.2348	70.2323	0.7147	34.5386	457.0820	2438.2683
418.3872	67.1021	0.8033	34.0760	456.9894	2453.7688
418.5396	66.3937	0.6190	34.4438	472.5060	2405.9988
418.6920	63.6617	0.3081	35.0493	473.7517	2421.0691
418.8444	60.0809	0.4807	33.7146	453.4612	2459.2153
418.9968	59.2744	0.6417	31.8010	472.6065	2440.5906
419.1492	60.2095	0.8147	32.0311	467.5492	2407.2891
419.3016	62.9175	0.8749	32.2548	455.2574	2437.0493
419.4540	63.2070	0.8760	31.7906	470.3236	2457.0107
419.6064	62.3081	0.8874	32.9571	478.3809	2484.7207
419.7588	61.9628	0.8498	33.5748	462.6363	2451.2646
419.9112	58.4787	0.7871	33.0027	490.2953	2437.4978
420.0636	53.8603	0.8170	32.9968	465.4473	2490.1626
420.2160	54.0225	0.7935	32.6508	481.8887	2484.3323
420.3684	58.4488	0.9321	31.3474	482.6564	2452.5168
420.5208	61.9938	0.8932	31.0243	498.4237	2460.7075
420.6732	53.7464	0.9722	30.9967	471.0762	2472.4314
420.8256	43.4485	1.0340	28.4563	483.9628	2505.5420
420.9780	42.3403	1.0168	27.9039	536.9290	2480.8599
421.1304	48.7628	0.7643	28.1771	549.8886	2469.1772
421.2828	46.8477	0.7544	27.3089	470.5183	2532.8508
421.4352	64.3969	0.5186	27.8873	485.5810	2547.5859
421.5876	81.3617	-0.0607	30.2194	507.4265	2356.4973
421.7400	69.4970	0.5984	30.4248	388.8506	2399.0632
421.8924	35.0426	1.0163	28.7106	395.2785	2591.1204
422.0448	38.2283	0.8933	30.5479	398.6648	2593.5637
422.1972	74.7258	0.4503	32.8164	408.4995	2355.8606
422.3496	104.7412	1.3482	30.3357	402.5272	2322.7976
422.5020	101.9110	0.4701	32.3299	390.7904	2304.8481
422.6544	96.6965	-0.3500	35.4092	381.7738	2317.4189
422.8068	95.1528	-0.4170	36.2124	385.4672	2244.4731
422.9592	91.9060	-0.4187	34.8806	375.9876	2344.8267
423.1116	94.0539	-0.4398	34.6680	387.3626	2297.7778
423.2640	96.3498	-0.3736	34.7701	384.2046	2326.6592
423.4164	92.4228	-0.4326	33.8286	441.8454	2358.5610
423.5688	93.9501	-0.4419	33.9883	427.0000	2385.0000
423.7212	88.5904	-0.2799	34.3733	442.0466	2308.4282
423.8736	91.8139	-0.4169	34.3528	409.5944	2340.3840
424.0260	90.8127	-0.3910	34.9780	426.1607	2371.3547
424.1784	93.3360	-0.4350	35.9661	427.0810	2348.2849
424.3308	89.3424	-0.3228	35.6320	376.0341	2417.1235
424.4832	94.2281	-0.2920	35.5843	385.5840	2322.5630
424.6356	105.1062	1.4905	32.5738	406.8807	2344.0081
424.7880	105.5121	1.8032	32.8523	384.4402	2375.1667
424.9404	100.2264	0.0964	38.6197	407.6185	2338.7061
425.0928	95.6039	-0.3575	38.4543	397.9006	2249.8745
425.2452	89.4873	-0.3226	38.0542	403.7315	2283.6299
425.3976	88.4151	-0.2760	38.6984	420.1785	2294.4790
425.5500	89.8689	-0.3441	36.4985	407.7397	2293.2664
425.7024	88.4545	-0.2776	34.9560	408.0883	2328.6765
425.8548	89.9479	-0.3432	35.0969	415.5002	2353.1042
426.0072	93.9632	-0.2310	34.8780	414.1905	2380.7673
426.1596	99.9467	0.2311	33.9832	404.6090	2324.7986
426.3120	91.7762	-0.4073	34.6941	409.5365	2342.3005
426.4644	88.0212	-0.2991	35.8414	396.4931	2395.4705
426.6168	79.8326	-0.0938	36.0734	390.7305	2333.5325
426.7692	64.1616	0.3668	35.8531	390.9076	2370.6863
426.9216	60.2660	0.4568	34.8202	435.5844	2449.7983
427.0740	72.3554	0.0533	35.2976	474.1032	2359.4153
427.2264	86.8922	-0.4130	34.9183	464.0107	2335.0986
427.3788	80.5965	-0.2245	34.7278	422.8338	2447.2036
427.5312	74.4659	0.0219	35.2123	429.5807	2519.5342
427.6836	65.4557	0.1418	35.8842	416.9314	2558.4478
427.8360	54.3958	0.6073	34.3692	396.4374	2623.0837
427.9884	54.9925	0.6262	34.1515	410.2962	2558.4216
428.1408	75.2446	0.0817	35.5397	399.0962	2426.2654
428.2932	93.0951	-0.3199	35.3766	389.5482	2327.4429
428.4456	96.5411	-0.2402	34.9838	388.7453	2348.2295
428.5980	92.7751	-0.4227	34.6772	386.2623	2310.6567
428.7504	91.3582	-0.4287	34.3583	389.1519	2297.9534
428.9028	87.3072	-0.4170	34.2160	388.7356	2292.4314
429.0552	83.8214	-0.1913	34.3402	406.1260	2304.2324
429.2076	85.8441	-0.1361	33.8013	428.8286	2357.8049
429.3600	90.5173	-0.3592	33.9734	437.6931	2378.3916
429.5124	89.7907	-0.3162	34.5191	429.3393	2327.3621
429.6648	81.1676	0.1711	34.9418	439.6373	2355.1841
429.8172	72.7898	0.6234	35.3167	433.4100	2420.9353
429.9696	70.9049	0.6974	35.6833	408.7604	2416.2805
430.1220	72.1110	0.6522	35.1140	405.2275	2468.5803
430.2744	78.9470	0.2862	34.9162	422.3749	2451.5461
430.4268	89.9198	-0.2477	34.6259	403.6981	2365.6973
430.5792	96.5873	-0.3258	34.8160	394.9284	2346.4746
430.7316	98.7711	-0.1688	34.8303	403.6935	2343.6663
430.8840	101.0770	0.2431	34.7284	391.8770	2346.6816
431.0364	100.3552	0.1033	34.6515	383.8466	2347.0796
431.1888	99.4350	-0.0775	34.2320	385.5004	2343.6665
431.3412	97.3416	-0.2797	34.2673	400.1011	2336.5396
431.4936	96.5385	-0.3654	34.8647	408.9268	2347.3677
431.6460	95.8177	-0.3973	35.0311	401.5187	2348.1992
431.7984	95.3372	-0.4155	35.4971	391.6213	2321.5142
431.9508	96.0031	-0.3861	36.5388	383.5379	2308.7000
432.1032	97.2249	-0.3111	36.2828	394.9416	2330.6494
432.2556	101.3377	0.5261	35.0055	378.2202	2282.2605
432.4080	102.3033	0.5614	35.1007	374.5934	2333.7136
432.5604	103.6727	0.9279	34.5172	378.6469	2339.0522
432.7128	100.2772	0.1397	34.6214	369.9430	2341.2866
432.8652	95.7203	-0.3346	33.8472	380.4685	2336.8721
433.0176	90.9390	-0.3696	34.3243	382.6609	2310.2854
433.1700	92.1693	-0.4223	34.5313	403.4424	2323.4822
433.3224	92.4836	-0.4338	34.8115	406.3992	2314.6270
433.4748	91.8391	-0.4195	36.1196	384.3626	2283.8997
433.6272	91.8751	-0.4191	37.5469	379.2399	2308.9824
433.7796	95.3028	-0.3369	37.1642	376.7663	2313.4468
433.9320	98.8137	-0.1411	36.5939	399.1664	2347.4995
434.0844	96.9820	-0.3415	34.5312	400.5800	2334.4392
434.2368	92.3896	-0.4214	33.7298	381.8312	2305.4634
434.3892	89.9210	-0.3369	33.5898	435.8786	2343.2590
434.5416	93.3960	-0.4381	35.1949	460.1205	2321.4995
434.6940	88.2765	-0.2667	36.0538	385.0735	2313.1995
434.8464	74.2602	0.5547	35.4210	402.2428	2382.0767
434.9988	60.3123	0.9178	34.2444	434.0000	2504.0000
435.1512	57.3102	0.7610	33.5273	467.1877	2440.1013
435.3036	58.7534	0.9335	32.2493	453.7610	2467.9592
435.4560	60.8715	0.8999	32.0323	459.8182	2472.8740
435.6084	60.9782	0.7119	32.6973	475.4033	2498.5652
435.7608	59.7160	0.9131	31.8235	460.2692	2539.5447
435.9132	66.2255	0.8180	33.3158	434.9596	2515.5439
436.0656	78.3951	0.3228	34.0546	420.8838	2457.4604
436.2180	84.5189	-0.0442	34.2917	456.5459	2484.9573
436.3704	81.7047	0.1342	35.3803	455.3785	2515.4346
436.5228	67.6388	0.3656	36.0074	472.2248	2430.9697
436.6752	58.1788	0.3767	36.2915	484.3203	2532.3828
436.8276	52.0161	0.3421	35.2242	467.2936	2564.9827
436.9800	55.1382	0.1319	35.0883	493.9937	2598.6902
437.1324	56.3983	0.0301	34.3113	488.1502	2622.1201
437.2848	57.4883	0.0557	34.3681	498.1300	2584.1619
437.4372	56.8956	0.1212	32.0945	521.5441	2581.3269
437.5896	56.4986	0.1338	31.9100	492.2499	2577.3740
437.7420	55.1015	0.1629	32.4856	470.6127	2620.1667
437.8944	53.4640	0.2975	32.6542	482.3042	2568.9607
438.0468	50.8837	0.3076	31.6303	469.6439	2611.2930
438.1992	50.9121	0.3666	33.1111	472.8324	2575.0569
438.3516	52.5276	0.4273	33.6137	484.0338	2574.1455
438.5040	55.7075	0.5738	33.0175	483.3600	2584.8501
438.6564	57.5983	0.6522	32.0083	484.0516	2527.2639
438.8088	58.3449	0.6096	32.1663	478.3695	2502.7200
438.9612	56.6818	0.4961	31.5129	479.1495	2506.9343
439.1136	56.4093	0.3276	32.1920	486.8358	2514.2336
439.2660	56.0617	0.2392	32.1962	490.9243	2531.4233
439.4184	54.5450	0.2471	32.9569	475.8411	2530.0442
439.5708	53.7421	0.1804	33.0476	471.0798	2563.1321
439.7232	54.4757	0.0636	33.2574	491.3866	2593.3354
439.8756	56.4566	0.0308	32.4242	477.7736	2607.3589
440.0280	57.3795	0.0753	32.2093	509.0313	2609.1169
440.1804	55.3569	0.0269	32.3312	498.3827	2594.8560
440.3328	50.5923	0.1228	31.8150	489.7102	2565.2856
440.4852	45.7240	0.2538	31.1859	520.8648	2592.8181
440.6376	46.2177	0.2099	30.8637	555.4581	2613.1543
440.7900	50.3789	-0.0355	30.8905	525.3705	2576.4175
440.9424	49.3661	-0.0459	30.1258	500.7755	2600.9150
441.0948	46.1462	0.0512	28.9216	523.2933	2660.0608
441.2472	45.0425	0.0566	28.1556	552.9186	2682.7754
441.3996	45.8204	0.0826	28.2774	547.6182	2709.4043
441.5520	46.4770	0.1314	28.4445	542.4866	2718.3215
441.7044	45.3457	0.1676	28.0524	535.4582	2642.8474
441.8568	44.7462	0.1465	28.9122	545.2806	2644.4915
442.0092	44.7226	0.1099	30.2685	556.6448	2686.9163
442.1616	45.8939	0.0130	30.2208	569.7396	2715.9868
442.3140	45.7737	-0.0324	28.8069	587.1177	2695.5427
442.4664	42.3480	0.0843	27.0942	574.3414	2664.8972
442.6188	43.0417	0.1725	25.3483	566.7247	2692.0715
442.7712	48.0366	0.1736	24.4255	560.9406	2631.5557
442.9236	47.3670	0.3411	24.3177	530.2255	2611.5105
443.0760	38.1150	0.9984	22.5016	487.2716	2691.2517
443.2284	33.7498	1.2692	23.0027	463.2477	2659.3025
443.3808	44.9274	0.7557	27.4295	480.5105	2541.1782
443.5332	51.7608	0.5114	29.4807	494.9241	2486.6519
443.6856	48.3509	0.5425	28.8241	501.6456	2515.9990
443.8380	47.9753	0.4761	28.5602	519.8329	2523.7847
443.9904	49.5123	0.4159	28.6982	520.2722	2522.1650
444.1428	46.9501	0.4298	27.8409	526.4935	2563.8247
444.2952	40.5154	0.5478	25.8175	543.0656	2603.7605
444.4476	40.6389	0.5371	24.6181	533.9802	2616.8491
444.6000	42.4226	0.4373	24.9682	530.1428	2617.9028
444.7524	42.2074	0.4404	24.5276	552.7723	2616.6201
444.9048	40.2094	0.4436	23.7860	559.2079	2588.7520
445.0572	38.5695	0.4443	24.2129	538.7907	2580.8591
445.2096	35.3483	0.5896	24.1933	550.6124	2597.1409
445.3620	31.9164	0.8418	23.3534	552.5804	2622.8445
445.5144	32.8821	0.8731	23.1177	545.4199	2602.6450
445.6668	37.2609	0.5702	23.9694	545.7525	2597.3323
445.8192	37.8840	0.4764	23.5116	544.6962	2596.0698
445.9716	39.5228	0.2485	23.3493	544.2941	2601.5137
446.1240	38.5804	0.1984	22.5179	534.9491	2633.1648
446.2764	38.8197	0.1356	22.4392	551.5948	2703.2073
446.4288	41.1552	0.0434	22.5838	559.7206	2626.1179
446.5812	41.3307	0.0202	23.1251	538.4554	2651.1655
446.7336	38.7187	0.1013	23.0871	529.5985	2660.9392
446.8860	37.2262	0.0944	23.0772	533.7229	2700.9031
447.0384	36.2194	0.1135	22.7718	554.3110	2699.8359
447.1908	37.8667	0.1096	22.7032	561.2776	2730.3403
447.3432	39.0027	0.1143	22.4661	579.6111	2680.1042
447.4956	38.7272	0.1413	22.3258	568.5516	2672.3462
447.6480	37.5890	0.1944	22.3005	566.6154	2760.4871
447.8004	37.9122	0.1988	22.3630	551.5474	2714.2100
447.9528	40.2999	0.1503	21.9554	561.8283	2699.9436
448.1052	39.8601	0.1263	22.0433	554.6390	2666.1392
448.2576	40.5191	0.1181	22.1516	569.1818	2689.2778
448.4100	38.8727	0.1713	22.5228	576.3224	2737.7292
448.5624	38.8730	0.1748	22.6080	570.9581	2745.8320
448.7148	35.9701	0.2916	23.2605	554.8559	2695.2651
448.8672	38.2826	0.3239	23.3101	586.4808	2648.0281
449.0196	39.6902	0.3704	23.6425	567.0992	2554.8818
449.1720	40.3516	0.4468	24.1867	505.2276	2657.8240
449.3244	34.8634	0.7903	23.3918	428.1429	2617.1428
449.4768	41.1460	0.7656	23.4160	520.5393	2645.1812
449.6292	64.9148	0.7729	24.7724	547.7142	2630.1904
449.7816	90.3421	-0.0631	27.4299	464.2260	2380.4307
449.9340	107.6785	1.8521	22.6542	397.0281	2359.4951
450.0864	101.1754	0.2016	31.1399	382.7949	2402.0278
450.2388	97.7660	-0.2535	35.5586	404.5417	2385.1558
450.3912	101.3242	0.2377	33.9699	397.5134	2318.9946
450.5436	95.8439	-0.4024	33.4316	390.5815	2369.6453
450.6960	97.0804	-0.3299	34.8300	415.4696	2375.1609
450.8484	96.5991	-0.3548	34.8641	401.4483	2353.9197
451.0008	96.6115	-0.3517	32.8364	390.1212	2367.1667
451.1532	96.9055	-0.3407	33.9347	396.4021	2297.4631
451.3056	95.6058	-0.4028	33.7890	386.0000	2346.6667
451.4580	96.2377	-0.3770	32.5207	400.5000	2348.5715
451.6104	89.3744	-0.3290	32.9984	391.0000	2400.8889
451.7628	69.0354	0.7420	33.3340	420.0000	2408.0000
451.9152	58.6547	0.7588	33.4423	411.5000	2415.0000
452.0676	60.5821	0.6834	33.0239	424.5000	2437.5000
452.2200	73.2543	0.1664	34.0422	411.5000	2348.5000
452.3724	80.2155	-0.1043	33.1834	476.5000	2395.5000
452.5248	78.1757	0.3517	33.4977	484.5000	2542.0000
452.6772	75.3684	0.2968	34.2873	409.0000	2466.0000
452.8296	72.5207	0.6343	34.8103	435.5000	2486.0000
452.9820	74.8764	0.5293	35.0531	467.5555	2414.5000
453.1344	81.6642	0.0676	35.2307	466.0000	2387.5000
453.2868	77.7623	-0.1590	35.1963	482.0000	2394.5000
453.4392	61.1931	0.3738	34.7419	475.5000	2487.1111
453.5916	52.3588	0.5113	34.0967	479.0000	2592.0000
453.7440	52.0191	0.5367	32.4644	513.0000	2555.0000
453.8964	56.7753	0.4393	33.4757	463.0000	2474.5000
454.0488	53.9686	0.4184	32.0198	505.0000	2508.5000
454.2012	52.5364	0.4838	30.5482	495.5000	2595.0000
454.3536	50.1056	0.3708	29.3440	490.5000	2508.0000
454.5060	51.4863	0.2845	29.8742	512.0000	2586.5000
454.6584	51.2645	0.3534	30.0683	520.5000	2507.5000
454.8108	54.8707	0.4138	30.4633	495.5000	2553.0000
454.9632	56.0043	0.5325	31.2061	481.0000	2598.5000
455.1156	56.7483	0.6388	33.2157	508.5000	2530.5000
455.2680	54.8135	0.7730	33.1199	508.8889	2570.0000
455.4204	48.9062	1.0097	30.4256	470.0000	2596.0000
455.5728	52.1453	0.9558	31.3021	508.0000	2595.1111
455.7252	55.9892	0.7295	31.4153	516.5000	2495.0000
455.8776	54.3503	0.9732	30.2266	491.0000	2561.0000
456.0300	54.4840	0.9773	29.8173	486.0000	2555.5000
456.1824	55.0890	0.9658	29.8242	482.0000	2513.5000
456.3348	56.3708	0.9507	29.9451	508.0000	2533.0000
456.4872	43.9829	1.0311	29.7006	513.0000	2515.5000
456.6396	46.3037	0.5357	30.8782	496.5000	2591.0000
456.7920	44.2042	0.2346	32.4945	534.0000	2695.0000
456.9444	44.5161	0.1774	32.5929	499.5000	2644.0000
457.0968	41.2511	0.3025	30.3976	522.5000	2688.5000
457.2492	39.4923	0.3878	30.1546	537.0000	2686.5000
457.4016	51.0468	0.2609	29.5936	555.5000	2603.5000
457.5540	61.2145	0.8985	28.2191	526.0000	2481.5000
457.7064	67.2596	0.7922	29.7543	450.0000	2482.5000
457.8588	67.8669	0.7756	31.0710	432.5000	2496.0000
458.0112	75.3728	0.4531	32.6982	423.5000	2507.0000
458.1636	87.4874	-0.3800	34.7039	415.5000	2462.0000
458.3160	76.4819	-0.1548	34.0783	510.5000	2343.5000
458.4684	52.4793	0.3782	32.1663	512.0000	2486.5000
458.6208	36.6243	0.4751	30.4419	526.0000	2630.0000
458.7732	43.5915	0.2472	29.9282	591.5555	2485.0000
458.9256	43.3630	0.1935	29.0692	540.5000	2553.5000
459.0780	39.9350	0.2338	27.4470	515.5000	2696.5000
459.2304	38.3932	0.2358	25.8595	565.5000	2723.5000
459.3828	39.9951	0.1745	24.9914	592.0000	2736.5000
459.5352	38.9821	0.1367	24.9840	581.0000	2743.0000
459.6876	38.2134	0.0692	24.2444	571.0000	2753.0000
459.8400	37.6754	0.0870	23.2866	582.0000	2790.6667
459.9924	38.8161	0.0437	23.3047	615.0000	2788.5000
460.1448	37.6245	0.0731	23.4617	610.0000	2738.0000
460.2972	36.0797	0.1279	22.5673	567.5000	2734.0000
460.4496	36.5964	0.2205	22.7130	584.5000	2767.5000
460.6020	39.7446	0.1704	23.6987	572.5000	2723.0000
460.7544	41.6925	0.2122	24.1967	577.0000	2684.0000
460.9068	37.5725	0.3712	23.4807	561.0000	2720.5000
461.0592	36.6848	0.4469	24.2008	608.0000	2672.5000
461.2116	35.8453	0.4614	23.7503	566.5000	2686.0000
461.3640	45.7622	0.3188	23.3683	543.5000	2651.0000
461.5164	50.2538	0.2401	24.4296	559.5000	2574.2856
461.6688	43.7816	0.3665	25.7058	500.5714	2671.5000
461.8212	31.6255	0.6238	25.3369	442.6667	2703.5000
461.9736	38.7837	0.5533	27.5616	507.0000	2669.0000
462.1260	56.8233	0.5076	30.7172	480.0000	2520.0000
462.2784	67.4324	0.7844	29.6970	439.0000	2466.2222
462.4308	61.4051	0.9020	30.6674	469.0000	2426.0000
462.5832	65.5932	0.8417	32.9058	455.0000	2448.5000
462.7356	73.8912	0.5907	34.0350	444.0000	2446.0000
462.8880	83.7005	0.0326	35.4887	417.5000	2471.0000
463.0404	91.1277	-0.3919	35.1355	450.0000	2423.0000
463.1928	90.2530	-0.3609	34.9744	432.0000	2424.0000
463.3452	94.8033	-0.4295	34.9684	432.5000	2497.0000
463.4976	91.3527	-0.4066	35.7438	461.7778	2451.5000
463.6500	87.5609	-0.2335	34.8856	446.5000	2485.0000
463.8024	78.7394	0.3381	35.1067	440.0000	2441.5000
463.9548	76.0038	0.4905	34.6580	433.0000	2523.1111
464.1072	75.8159	0.4951	35.0115	442.5000	2378.2856
464.2596	72.9424	0.6201	34.7581	451.0000	2418.6667
464.4120	69.0295	0.7410	34.3604	464.0000	2516.5000
464.5644	69.3567	0.3375	35.7209	461.5000	2503.0000
464.7168	72.9102	0.1027	35.5829	487.0000	2485.0000
464.8692	68.9645	0.5023	33.8764	464.0000	2408.5000
465.0216	54.8437	0.9637	31.7153	483.0000	2562.0000
465.1740	40.9722	1.1040	29.7442	450.0000	2509.0000
465.3264	44.5722	1.0714	28.2350	496.5000	2544.0000
465.4788	55.7737	0.9745	27.5161	525.0000	2494.0000
465.6312	61.8364	0.9043	26.7967	482.5000	2527.5000
465.7836	57.1563	0.9349	26.7921	517.5000	2518.0000
465.9360	50.1918	1.0023	26.6937	522.5000	2603.0000
466.0884	49.6242	1.0029	25.7541	543.1111	2569.5000
466.2408	53.4992	0.6242	26.7346	525.1429	2549.5000
466.3932	56.5468	0.5165	27.2386	536.5000	2594.0000
466.5456	52.1213	0.8936	25.6576	520.5000	2541.5000
466.6980	48.3282	0.9354	24.6831	546.0000	2624.0000
466.8504	38.8152	1.1479	23.7506	523.5555	2566.5000
467.0028	44.7403	0.6955	25.1828	537.5000	2531.5000
467.1552	37.3292	1.2249	22.3532	523.5000	2592.0000
467.3076	36.8634	1.2330	21.3432	516.5000	2630.0000
467.4600	37.6836	1.1853	22.0757	506.0000	2573.7778
467.6124	37.1575	1.2080	22.4739	532.5000	2560.0000
467.7648	37.5534	1.0891	22.7525	536.5000	2659.5000
467.9172	36.4647	1.2409	22.8845	521.0000	2572.0000
468.0696	36.7265	1.2295	23.9755	542.0000	2666.5000
468.2220	38.3309	1.1909	24.5151	522.2857	2604.5000
468.3744	45.5961	1.0547	25.6809	535.5000	2593.0000
468.5268	47.4766	1.0419	26.2922	495.0000	2576.0000
468.6792	60.2334	0.9333	27.8610	483.5000	2603.0000
468.8316	68.9846	0.7653	29.3933	453.0000	2529.0000
468.9840	80.0948	0.2417	30.4249	430.2857	2436.5000
469.1364	83.0772	0.0464	31.3221	425.5000	2464.0000
469.2888	89.4390	-0.3300	33.8771	413.5000	2446.8572
469.4412	95.0248	-0.4215	32.7190	411.0000	2385.5000
469.5936	95.8055	-0.3988	32.2779	421.5000	2378.0000
469.7460	95.4705	-0.4098	33.5036	437.0000	2352.5000
469.8984	96.1935	-0.3745	34.1958	501.0000	2426.6667
470.0508	75.7281	-0.1323	32.2831	513.0000	2467.2000
470.2032	65.1407	0.1898	31.6490	507.1111	2724.8000
470.3556	56.9795	0.5200	30.9364	472.3636	2659.6667
470.5080	68.9817	0.1983	31.4167	474.1818	2743.6924
470.6604	74.7863	0.0008	32.5130	432.9231	2625.4868
470.8128	85.8212	-0.4543	32.5168	426.7692	2600.0000
470.9652	82.6912	-0.3019	32.7633	426.5275	2600.0000
